"T","Distance","Radius","FreeRadius","X","Y","Z"
0.000,0.000,1.454,1.614,95.664,89.793,197.738
0.009,0.274,1.412,1.589,95.906,89.794,197.865
0.018,0.546,1.395,1.588,96.147,89.795,197.991
0.027,0.811,1.403,1.610,96.382,89.796,198.113
0.036,1.067,1.435,1.652,96.611,89.798,198.229
0.045,1.312,1.487,1.710,96.831,89.800,198.336
0.054,1.542,1.555,1.779,97.038,89.803,198.434
0.063,1.754,1.636,1.854,97.232,89.807,198.520
0.072,1.945,1.722,1.929,97.410,89.812,198.591
0.081,2.114,1.812,2.000,97.570,89.818,198.646
0.090,2.257,1.902,2.061,97.708,89.825,198.683
0.099,2.375,1.893,2.109,97.824,89.833,198.701
0.108,2.470,1.878,2.144,97.918,89.842,198.701
0.117,2.548,1.879,2.166,97.994,89.852,198.686
0.126,2.614,1.882,2.178,98.053,89.862,198.658
0.135,2.672,1.892,2.180,98.098,89.872,198.622
0.144,2.728,1.904,2.176,98.131,89.881,198.578
0.153,2.781,1.920,2.168,98.155,89.890,198.531
0.162,2.832,1.938,2.157,98.172,89.896,198.483
0.171,2.880,1.956,2.147,98.184,89.901,198.437
0.180,2.923,1.977,2.139,98.194,89.903,198.395
0.189,2.959,1.970,2.136,98.203,89.903,198.361
0.198,2.989,1.957,2.136,98.213,89.901,198.333
0.207,3.014,1.950,2.139,98.224,89.898,198.311
0.216,3.036,1.944,2.143,98.235,89.895,198.292
0.225,3.056,1.940,2.148,98.247,89.893,198.276
0.234,3.076,1.938,2.151,98.259,89.893,198.260
0.243,3.097,1.940,2.151,98.272,89.897,198.243
0.252,3.121,1.944,2.149,98.286,89.904,198.225
0.261,3.151,1.950,2.142,98.300,89.918,198.203
0.270,3.188,1.964,2.129,98.315,89.937,198.175
0.279,3.233,1.956,2.110,98.331,89.964,198.141
0.288,3.288,1.938,2.087,98.348,89.997,198.101
0.297,3.350,1.922,2.060,98.366,90.035,198.056
0.306,3.417,1.903,2.031,98.387,90.077,198.008
0.315,3.489,1.885,2.004,98.410,90.121,197.956
0.324,3.563,1.866,1.979,98.437,90.166,197.904
0.333,3.638,1.847,1.959,98.467,90.209,197.851
0.342,3.712,1.829,1.945,98.502,90.251,197.800
0.351,3.786,1.810,1.939,98.541,90.289,197.751
0.360,3.857,1.794,1.942,98.586,90.321,197.706
0.369,3.927,1.762,1.956,98.637,90.347,197.665
0.378,3.997,1.725,1.979,98.693,90.366,197.629
0.387,4.067,1.700,2.011,98.754,90.381,197.597
0.396,4.138,1.680,2.049,98.818,90.391,197.568
0.405,4.211,1.666,2.092,98.885,90.400,197.542
0.414,4.284,1.656,2.137,98.954,90.408,197.517
0.423,4.358,1.647,2.184,99.023,90.416,197.493
0.432,4.432,1.639,2.229,99.092,90.427,197.469
0.441,4.505,1.630,2.273,99.160,90.441,197.445
0.450,4.579,1.617,2.313,99.226,90.460,197.419
0.459,4.652,1.600,2.348,99.289,90.485,197.391
0.468,4.728,1.578,2.379,99.350,90.516,197.360
0.477,4.807,1.552,2.408,99.412,90.554,197.327
0.486,4.893,1.524,2.438,99.477,90.597,197.291
0.495,4.988,1.496,2.472,99.549,90.646,197.253
0.505,5.092,1.471,2.513,99.629,90.699,197.212
0.514,5.208,1.449,2.566,99.720,90.757,197.170
0.523,5.338,1.437,2.620,99.826,90.818,197.125
0.532,5.484,1.433,2.663,99.948,90.882,197.077
0.541,5.649,1.455,2.713,100.090,90.948,197.028
0.550,5.834,1.455,2.783,100.254,91.017,196.977
0.559,6.039,1.423,2.871,100.440,91.088,196.924
0.568,6.260,1.422,2.977,100.643,91.160,196.873
0.577,6.493,1.441,3.098,100.858,91.233,196.824
0.586,6.732,1.485,3.230,101.081,91.306,196.779
0.595,6.974,1.551,3.370,101.308,91.380,196.742
0.604,7.213,1.636,3.508,101.534,91.453,196.713
0.613,7.446,1.738,3.672,101.755,91.526,196.694
0.622,7.669,1.847,3.663,101.965,91.598,196.688
0.631,7.877,1.970,3.539,102.161,91.669,196.696
0.640,8.069,2.064,3.455,102.339,91.737,196.720
0.649,8.243,2.104,3.387,102.495,91.803,196.760
0.658,8.401,2.140,3.344,102.632,91.864,196.808
0.667,8.541,2.169,3.317,102.751,91.917,196.860
0.676,8.662,2.195,3.302,102.854,91.959,196.908
0.685,8.763,2.224,3.292,102.943,91.988,196.946
0.694,8.844,2.259,3.273,103.019,92.002,196.969
0.703,8.909,2.308,3.239,103.084,91.998,196.970
0.712,8.976,2.364,3.192,103.141,91.974,196.942
0.721,9.068,2.466,3.133,103.189,91.926,196.880
0.730,9.201,2.526,3.056,103.232,91.854,196.778
0.739,9.379,2.428,2.962,103.271,91.756,196.634
0.748,9.597,2.340,2.860,103.305,91.637,196.454
0.757,9.846,2.248,2.758,103.336,91.502,196.248
0.766,10.116,2.165,2.662,103.363,91.356,196.023
0.775,10.398,2.097,2.583,103.387,91.204,195.786
0.784,10.683,2.049,2.506,103.409,91.051,195.547
0.793,10.961,2.023,2.411,103.427,90.902,195.312
0.802,11.224,2.019,2.318,103.444,90.762,195.090
0.811,11.462,2.033,2.252,103.459,90.636,194.889
0.820,11.666,2.056,2.205,103.472,90.529,194.716
0.829,11.830,2.076,2.175,103.483,90.444,194.577
0.838,11.958,2.098,2.156,103.493,90.376,194.468
0.847,12.058,2.120,2.146,103.501,90.323,194.384
0.856,12.133,2.139,2.143,103.508,90.280,194.322
0.865,12.191,2.147,2.146,103.512,90.244,194.277
0.874,12.239,2.156,2.155,103.514,90.209,194.245
0.883,12.282,2.159,2.172,103.513,90.173,194.221
0.892,12.328,2.145,2.195,103.509,90.132,194.201
0.901,12.384,2.127,2.231,103.503,90.080,194.181
0.910,12.454,2.105,2.267,103.494,90.015,194.156
0.919,12.542,2.079,2.243,103.481,89.934,194.123
0.928,12.649,2.052,2.219,103.466,89.837,194.082
0.937,12.770,2.026,2.194,103.448,89.727,194.035
0.946,12.905,2.002,2.171,103.428,89.604,193.982
0.955,13.052,1.982,2.151,103.405,89.471,193.923
0.964,13.209,1.968,2.136,103.382,89.330,193.860
0.973,13.373,1.961,2.127,103.357,89.182,193.794
0.982,13.543,1.961,2.126,103.331,89.028,193.725
0.991,13.717,1.971,2.133,103.304,88.872,193.655
1.000,13.893,1.989,2.149,103.277,88.713,193.584
