"T","Distance","Radius","FreeRadius","X","Y","Z"
0.000,0.000,2.219,2.219,81.519,160.882,90.905
0.008,0.072,2.217,2.217,81.489,160.831,90.946
0.017,0.145,2.188,2.188,81.461,160.774,90.983
0.025,0.225,2.154,2.154,81.436,160.705,91.015
0.033,0.318,2.133,2.133,81.417,160.618,91.038
0.041,0.431,2.132,2.132,81.405,160.506,91.049
0.050,0.573,2.147,2.147,81.402,160.363,91.045
0.058,0.754,2.129,2.129,81.409,160.184,91.024
0.066,0.973,2.106,2.106,81.428,159.969,90.984
0.074,1.217,2.099,2.099,81.455,159.732,90.932
0.083,1.471,2.106,2.106,81.487,159.488,90.872
0.091,1.718,2.129,2.129,81.520,159.251,90.808
0.099,1.944,2.164,2.164,81.552,159.036,90.748
0.107,2.131,2.203,2.203,81.580,158.858,90.695
0.116,2.266,2.237,2.237,81.600,158.732,90.655
0.124,2.346,2.261,2.261,81.612,158.657,90.629
0.132,2.383,2.272,2.272,81.619,158.624,90.613
0.140,2.392,2.274,2.274,81.622,158.622,90.606
0.149,2.410,2.268,2.268,81.625,158.640,90.603
0.157,2.438,2.257,2.257,81.628,158.667,90.603
0.165,2.465,2.245,2.245,81.635,158.694,90.602
0.174,2.486,2.232,2.232,81.647,158.709,90.598
0.182,2.503,2.222,2.222,81.662,158.714,90.591
0.190,2.521,2.214,2.214,81.678,158.712,90.581
0.198,2.538,2.211,2.211,81.690,158.707,90.571
0.207,2.551,2.214,2.214,81.695,158.701,90.561
0.215,2.562,2.223,2.223,81.691,158.699,90.551
0.223,2.581,2.239,2.239,81.673,158.705,90.544
0.231,2.615,2.263,2.263,81.643,158.718,90.538
0.240,2.652,2.294,2.294,81.614,158.735,90.523
0.248,2.691,2.293,2.293,81.602,158.747,90.487
0.256,2.761,2.270,2.270,81.622,158.748,90.421
0.264,2.890,2.274,2.274,81.690,158.731,90.312
0.273,3.102,2.274,2.274,81.822,158.689,90.151
0.281,3.419,2.162,2.162,82.033,158.615,89.926
0.289,3.837,2.052,2.052,82.320,158.511,89.641
0.298,4.320,2.000,2.000,82.658,158.387,89.319
0.306,4.830,2.016,2.016,83.018,158.258,88.982
0.314,5.328,2.104,2.104,83.372,158.134,88.654
0.322,5.777,2.238,2.238,83.693,158.028,88.358
0.331,6.138,2.392,2.392,83.953,157.953,88.119
0.339,6.378,2.436,2.436,84.127,157.920,87.957
0.347,6.501,2.387,2.387,84.215,157.928,87.871
0.355,6.554,2.354,2.354,84.235,157.970,87.846
0.364,6.628,2.382,2.382,84.208,158.036,87.863
0.372,6.738,2.447,2.447,84.149,158.119,87.906
0.380,6.865,2.458,2.458,84.080,158.210,87.960
0.388,6.984,2.429,2.429,84.017,158.300,88.007
0.397,7.080,2.407,2.407,83.976,158.383,88.033
0.405,7.156,2.405,2.405,83.960,158.457,88.040
0.413,7.223,2.417,2.417,83.965,158.523,88.031
0.421,7.288,2.441,2.441,83.988,158.581,88.013
0.430,7.357,2.486,2.486,84.027,158.632,87.988
0.438,7.429,2.509,2.509,84.078,158.676,87.963
0.446,7.505,2.496,2.496,84.141,158.714,87.942
0.455,7.584,2.486,2.486,84.211,158.747,87.928
0.463,7.668,2.483,2.483,84.289,158.778,87.918
0.471,7.759,2.484,2.484,84.373,158.810,87.910
0.479,7.855,2.483,2.483,84.462,158.845,87.901
0.488,7.959,2.462,2.462,84.556,158.888,87.888
0.496,8.072,2.426,2.426,84.655,158.940,87.870
0.504,8.195,2.402,2.402,84.756,159.004,87.843
0.512,8.329,2.389,2.389,84.860,159.080,87.807
0.521,8.469,2.385,2.385,84.967,159.160,87.765
0.529,8.611,2.389,2.389,85.076,159.238,87.719
0.537,8.751,2.398,2.398,85.187,159.309,87.672
0.545,8.885,2.408,2.408,85.300,159.366,87.625
0.554,9.013,2.416,2.416,85.414,159.402,87.582
0.562,9.135,2.418,2.418,85.530,159.413,87.544
0.570,9.256,2.400,2.400,85.646,159.400,87.511
0.579,9.375,2.382,2.382,85.758,159.369,87.484
0.587,9.492,2.388,2.388,85.864,159.326,87.462
0.595,9.604,2.400,2.400,85.962,159.276,87.443
0.603,9.705,2.398,2.398,86.049,159.225,87.428
0.612,9.793,2.394,2.394,86.122,159.178,87.416
0.620,9.863,2.393,2.393,86.180,159.141,87.406
0.628,9.916,2.394,2.394,86.224,159.112,87.399
0.636,9.956,2.395,2.395,86.257,159.091,87.393
0.645,9.984,2.397,2.397,86.281,159.077,87.388
0.653,10.004,2.399,2.399,86.299,159.069,87.384
0.661,10.018,2.401,2.401,86.313,159.067,87.380
0.669,10.031,2.402,2.403,86.325,159.068,87.377
0.678,10.047,2.401,2.406,86.340,159.073,87.373
0.686,10.071,2.400,2.406,86.362,159.082,87.372
0.694,10.108,2.398,2.403,86.396,159.094,87.373
0.702,10.164,2.391,2.395,86.450,159.111,87.379
0.711,10.245,2.379,2.381,86.527,159.131,87.391
0.719,10.356,2.361,2.362,86.634,159.156,87.410
0.727,10.503,2.338,2.338,86.775,159.185,87.437
0.736,10.679,2.315,2.315,86.945,159.217,87.472
0.744,10.870,2.299,2.299,87.128,159.252,87.509
0.752,11.060,2.293,2.293,87.312,159.286,87.545
0.760,11.235,2.299,2.299,87.481,159.321,87.577
0.769,11.381,2.313,2.313,87.622,159.352,87.599
0.777,11.483,2.332,2.332,87.719,159.381,87.608
0.785,11.532,2.356,2.356,87.762,159.404,87.602
0.793,11.556,2.357,2.357,87.763,159.421,87.586
0.802,11.589,2.341,2.340,87.739,159.431,87.566
0.810,11.624,2.323,2.324,87.708,159.433,87.552
0.818,11.645,2.326,2.326,87.687,159.425,87.549
0.826,11.672,2.356,2.357,87.696,159.407,87.566
0.835,11.749,2.332,2.341,87.752,159.378,87.611
0.843,11.889,2.274,2.294,87.863,159.338,87.686
0.851,12.077,2.221,2.248,88.016,159.290,87.784
0.860,12.292,2.171,2.205,88.192,159.239,87.896
0.868,12.516,2.136,2.173,88.376,159.190,88.014
0.876,12.727,2.115,2.153,88.548,159.145,88.128
0.884,12.906,2.117,2.131,88.692,159.111,88.229
0.893,13.034,2.103,2.099,88.791,159.090,88.308
0.901,13.110,2.067,2.067,88.842,159.082,88.363
0.909,13.149,2.048,2.048,88.863,159.081,88.395
0.917,13.165,2.039,2.039,88.871,159.080,88.410
0.926,13.178,2.040,2.041,88.882,159.074,88.409
0.934,13.217,2.059,2.057,88.915,159.056,88.397
0.942,13.299,2.081,2.085,88.986,159.020,88.378
0.950,13.440,2.082,2.139,89.111,158.960,88.353
0.959,13.640,2.059,2.215,89.290,158.876,88.326
0.967,13.889,2.048,2.217,89.515,158.772,88.296
0.975,14.177,2.059,2.217,89.775,158.653,88.264
0.983,14.495,2.095,2.261,90.063,158.522,88.231
0.992,14.832,2.166,2.320,90.368,158.383,88.196
1.000,15.180,2.266,2.368,90.683,158.240,88.161
