"T","Distance","Radius","FreeRadius","X","Y","Z"
0.000,0.000,1.635,1.635,143.360,148.211,210.347
0.006,0.193,1.593,1.605,143.313,148.056,210.241
0.011,0.385,1.559,1.582,143.266,147.903,210.135
0.017,0.573,1.539,1.573,143.219,147.755,210.029
0.023,0.756,1.531,1.573,143.172,147.612,209.924
0.029,0.932,1.534,1.582,143.124,147.479,209.820
0.034,1.100,1.547,1.598,143.074,147.355,209.718
0.040,1.258,1.570,1.620,143.024,147.244,209.617
0.046,1.406,1.598,1.644,142.973,147.148,209.518
0.051,1.542,1.635,1.669,142.921,147.068,209.421
0.057,1.667,1.676,1.692,142.867,147.007,209.326
0.063,1.782,1.709,1.713,142.811,146.967,209.234
0.069,1.889,1.729,1.729,142.754,146.949,209.144
0.074,1.993,1.738,1.738,142.696,146.951,209.058
0.080,2.096,1.738,1.738,142.638,146.969,208.976
0.086,2.198,1.736,1.736,142.580,147.001,208.898
0.091,2.299,1.739,1.739,142.523,147.044,208.825
0.097,2.400,1.753,1.753,142.469,147.095,208.758
0.103,2.497,1.764,1.764,142.417,147.151,208.697
0.109,2.590,1.765,1.765,142.369,147.209,208.642
0.114,2.677,1.765,1.765,142.326,147.266,208.594
0.120,2.753,1.767,1.767,142.287,147.318,208.553
0.126,2.818,1.768,1.768,142.255,147.364,208.521
0.131,2.870,1.768,1.768,142.228,147.401,208.497
0.137,2.909,1.767,1.767,142.208,147.430,208.480
0.143,2.940,1.766,1.766,142.192,147.453,208.467
0.149,2.962,1.764,1.764,142.179,147.470,208.459
0.154,2.979,1.763,1.763,142.170,147.483,208.453
0.160,2.993,1.763,1.763,142.163,147.493,208.447
0.166,3.006,1.764,1.764,142.156,147.502,208.441
0.171,3.019,1.767,1.767,142.151,147.511,208.432
0.177,3.037,1.774,1.774,142.144,147.520,208.419
0.183,3.061,1.784,1.784,142.136,147.533,208.401
0.189,3.092,1.793,1.793,142.126,147.549,208.375
0.194,3.134,1.798,1.798,142.112,147.570,208.342
0.200,3.183,1.801,1.801,142.096,147.595,208.302
0.206,3.239,1.805,1.805,142.079,147.623,208.258
0.211,3.299,1.810,1.810,142.059,147.653,208.210
0.217,3.361,1.816,1.816,142.039,147.686,208.160
0.223,3.425,1.823,1.823,142.018,147.720,208.110
0.229,3.488,1.830,1.830,141.998,147.754,208.062
0.234,3.548,1.837,1.837,141.978,147.788,208.016
0.240,3.605,1.843,1.843,141.959,147.821,207.975
0.246,3.655,1.847,1.847,141.941,147.852,207.940
0.251,3.698,1.848,1.848,141.926,147.881,207.912
0.257,3.733,1.847,1.847,141.913,147.908,207.893
0.263,3.763,1.844,1.844,141.902,147.932,207.879
0.269,3.790,1.839,1.839,141.893,147.956,207.871
0.274,3.816,1.833,1.833,141.886,147.980,207.865
0.280,3.842,1.828,1.828,141.880,148.006,207.859
0.286,3.871,1.824,1.824,141.875,148.033,207.853
0.291,3.903,1.823,1.823,141.872,148.064,207.844
0.297,3.941,1.825,1.825,141.868,148.099,207.830
0.303,3.986,1.831,1.831,141.865,148.139,207.810
0.309,4.041,1.842,1.844,141.863,148.186,207.781
0.314,4.108,1.865,1.863,141.860,148.239,207.742
0.320,4.186,1.897,1.890,141.857,148.300,207.692
0.326,4.275,1.917,1.931,141.853,148.366,207.632
0.331,4.372,1.918,1.976,141.850,148.437,207.566
0.337,4.475,1.921,1.997,141.846,148.510,207.494
0.343,4.581,1.931,1.995,141.843,148.584,207.419
0.349,4.687,1.945,1.986,141.839,148.658,207.342
0.354,4.792,1.958,1.979,141.836,148.730,207.265
0.360,4.893,1.968,1.973,141.833,148.798,207.191
0.366,4.987,1.971,1.970,141.830,148.860,207.121
0.371,5.073,1.969,1.968,141.827,148.916,207.056
0.377,5.147,1.966,1.966,141.825,148.964,206.999
0.383,5.209,1.965,1.965,141.824,149.003,206.951
0.389,5.259,1.964,1.964,141.822,149.034,206.912
0.394,5.299,1.963,1.963,141.820,149.058,206.880
0.400,5.329,1.963,1.963,141.817,149.076,206.856
0.406,5.351,1.964,1.964,141.814,149.089,206.839
0.411,5.365,1.965,1.965,141.809,149.099,206.830
0.417,5.375,1.969,1.969,141.803,149.106,206.826
0.423,5.385,1.975,1.975,141.795,149.111,206.829
0.429,5.399,1.984,1.984,141.785,149.116,206.838
0.434,5.418,1.997,1.997,141.773,149.121,206.851
0.440,5.443,2.012,2.012,141.758,149.128,206.870
0.446,5.473,2.036,2.036,141.740,149.137,206.892
0.451,5.507,2.066,2.066,141.718,149.149,206.915
0.457,5.544,2.068,2.068,141.691,149.164,206.936
0.463,5.584,2.039,2.039,141.660,149.183,206.951
0.469,5.628,2.011,2.011,141.623,149.206,206.959
0.474,5.680,1.994,1.994,141.579,149.235,206.956
0.480,5.744,1.985,1.984,141.529,149.269,206.939
0.486,5.822,1.988,1.989,141.471,149.309,206.906
0.491,5.918,2.001,2.012,141.404,149.356,206.853
0.497,6.038,1.993,2.035,141.329,149.410,206.779
0.503,6.182,1.957,2.043,141.244,149.472,206.679
0.509,6.352,1.920,2.029,141.150,149.541,206.555
0.514,6.544,1.892,2.006,141.047,149.615,206.412
0.520,6.752,1.874,2.000,140.938,149.693,206.253
0.526,6.973,1.869,2.014,140.822,149.772,206.082
0.531,7.201,1.882,2.043,140.701,149.852,205.905
0.537,7.433,1.914,2.085,140.576,149.929,205.726
0.543,7.664,1.965,2.140,140.448,150.004,205.548
0.549,7.890,2.039,2.204,140.319,150.073,205.377
0.554,8.106,2.125,2.271,140.188,150.135,205.216
0.560,8.308,2.191,2.336,140.058,150.188,205.071
0.566,8.493,2.191,2.393,139.930,150.230,204.945
0.571,8.662,2.097,2.436,139.801,150.262,204.839
0.577,8.820,1.990,2.468,139.671,150.283,204.753
0.583,8.970,1.932,2.489,139.537,150.293,204.686
0.589,9.118,1.905,2.501,139.397,150.294,204.637
0.594,9.271,1.899,2.502,139.248,150.285,204.605
0.600,9.433,1.921,2.495,139.088,150.267,204.589
0.606,9.609,1.969,2.483,138.914,150.240,204.588
0.611,9.802,2.039,2.467,138.725,150.206,204.601
0.617,10.015,2.153,2.452,138.517,150.163,204.627
0.623,10.251,2.307,2.442,138.290,150.113,204.665
0.629,10.512,2.406,2.432,138.040,150.056,204.715
0.634,10.795,2.426,2.426,137.770,149.993,204.773
0.640,11.092,2.442,2.443,137.488,149.925,204.837
0.646,11.398,2.488,2.488,137.199,149.854,204.905
0.651,11.703,2.558,2.558,136.911,149.779,204.973
0.657,12.002,2.650,2.650,136.628,149.704,205.038
0.663,12.288,2.760,2.760,136.359,149.629,205.097
0.669,12.554,2.874,2.874,136.110,149.554,205.148
0.674,12.792,2.991,2.991,135.886,149.483,205.187
0.680,12.996,3.135,3.135,135.695,149.414,205.211
0.686,13.161,3.243,3.243,135.543,149.350,205.218
0.691,13.284,3.209,3.209,135.436,149.293,205.205
0.697,13.372,3.111,3.111,135.371,149.242,205.173
0.703,13.445,3.070,3.070,135.342,149.198,205.122
0.709,13.520,3.074,3.074,135.343,149.163,205.055
0.714,13.607,3.096,3.096,135.365,149.137,204.975
0.720,13.708,3.137,3.137,135.402,149.121,204.883
0.726,13.819,3.192,3.192,135.448,149.116,204.782
0.731,13.938,3.246,3.246,135.494,149.122,204.672
0.737,14.061,3.299,3.299,135.535,149.139,204.558
0.743,14.186,3.353,3.353,135.563,149.170,204.439
0.749,14.314,3.384,3.384,135.572,149.214,204.320
0.754,14.448,3.374,3.374,135.554,149.273,204.200
0.760,14.592,3.337,3.337,135.511,149.344,204.083
0.766,14.747,3.286,3.286,135.446,149.428,203.970
0.771,14.912,3.235,3.235,135.362,149.522,203.863
0.777,15.087,3.192,3.192,135.263,149.624,203.762
0.783,15.268,3.156,3.156,135.152,149.733,203.670
0.789,15.452,3.127,3.127,135.033,149.848,203.589
0.794,15.638,3.107,3.107,134.909,149.967,203.519
0.800,15.821,3.118,3.118,134.783,150.088,203.463
0.806,15.999,3.140,3.140,134.659,150.209,203.422
0.811,16.170,3.093,3.093,134.542,150.330,203.397
0.817,16.331,2.988,2.988,134.432,150.449,203.391
0.823,16.485,2.909,2.909,134.331,150.564,203.401
0.829,16.633,2.861,2.861,134.238,150.677,203.426
0.834,16.777,2.826,2.826,134.151,150.785,203.464
0.840,16.918,2.802,2.802,134.068,150.888,203.513
0.846,17.057,2.792,2.792,133.989,150.987,203.570
0.851,17.194,2.790,2.790,133.912,151.080,203.634
0.857,17.328,2.795,2.795,133.836,151.167,203.702
0.863,17.460,2.813,2.813,133.759,151.248,203.773
0.869,17.590,2.817,2.817,133.681,151.322,203.844
0.874,17.716,2.779,2.779,133.599,151.389,203.914
0.880,17.839,2.729,2.729,133.514,151.448,203.980
0.886,17.961,2.696,2.696,133.424,151.502,204.042
0.891,18.082,2.676,2.676,133.329,151.552,204.099
0.897,18.205,2.661,2.661,133.229,151.601,204.151
0.903,18.330,2.652,2.652,133.125,151.652,204.197
0.909,18.459,2.650,2.650,133.015,151.706,204.236
0.914,18.592,2.651,2.651,132.900,151.766,204.269
0.920,18.733,2.654,2.654,132.780,151.835,204.294
0.926,18.883,2.660,2.660,132.654,151.915,204.312
0.931,19.044,2.666,2.666,132.523,152.008,204.321
0.937,19.219,2.674,2.674,132.387,152.117,204.322
0.943,19.409,2.683,2.683,132.244,152.243,204.314
0.949,19.615,2.696,2.696,132.097,152.386,204.297
0.954,19.836,2.716,2.716,131.944,152.544,204.272
0.960,20.070,2.745,2.745,131.788,152.715,204.241
0.966,20.316,2.785,2.785,131.627,152.898,204.203
0.971,20.572,2.838,2.838,131.464,153.090,204.161
0.977,20.837,2.904,2.904,131.298,153.291,204.114
0.983,21.109,2.986,2.986,131.129,153.499,204.064
0.989,21.386,3.082,3.082,130.960,153.712,204.012
0.994,21.667,3.196,3.196,130.789,153.928,203.958
1.000,21.949,3.319,3.319,130.617,154.145,203.902
