"T","Distance","Radius","FreeRadius","X","Y","Z"
0.000,0.000,1.772,1.772,106.371,131.896,126.968
0.010,0.116,1.746,1.746,106.289,131.888,126.886
0.019,0.231,1.725,1.725,106.207,131.881,126.805
0.029,0.348,1.709,1.709,106.123,131.877,126.724
0.038,0.467,1.700,1.700,106.036,131.880,126.643
0.048,0.588,1.699,1.698,105.947,131.889,126.562
0.058,0.714,1.705,1.705,105.853,131.908,126.481
0.067,0.845,1.726,1.723,105.755,131.938,126.399
0.077,0.983,1.729,1.750,105.651,131.981,126.318
0.087,1.130,1.719,1.794,105.543,132.036,126.236
0.096,1.282,1.715,1.823,105.432,132.099,126.152
0.106,1.439,1.719,1.837,105.321,132.168,126.065
0.115,1.599,1.734,1.858,105.211,132.238,125.973
0.125,1.758,1.763,1.880,105.105,132.308,125.876
0.135,1.917,1.812,1.903,105.005,132.372,125.772
0.144,2.072,1.863,1.926,104.914,132.429,125.659
0.154,2.226,1.895,1.947,104.831,132.476,125.539
0.163,2.381,1.940,1.969,104.754,132.514,125.410
0.173,2.536,1.977,1.994,104.683,132.545,125.275
0.183,2.694,2.013,2.024,104.613,132.569,125.136
0.192,2.854,2.060,2.061,104.543,132.588,124.993
0.202,3.017,2.092,2.092,104.470,132.604,124.848
0.212,3.182,2.118,2.118,104.392,132.617,124.703
0.221,3.351,2.159,2.159,104.306,132.630,124.559
0.231,3.520,2.212,2.212,104.214,132.643,124.418
0.240,3.684,2.274,2.274,104.121,132.655,124.283
0.250,3.840,2.340,2.340,104.030,132.667,124.157
0.260,3.983,2.405,2.405,103.946,132.679,124.042
0.269,4.107,2.465,2.465,103.872,132.690,123.942
0.279,4.210,2.515,2.515,103.813,132.701,123.860
0.288,4.285,2.550,2.550,103.773,132.711,123.797
0.298,4.332,2.562,2.562,103.751,132.720,123.755
0.308,4.359,2.554,2.554,103.743,132.727,123.731
0.317,4.369,2.546,2.546,103.742,132.730,123.722
0.327,4.371,2.549,2.549,103.741,132.728,123.724
0.337,4.386,2.558,2.558,103.734,132.720,123.733
0.346,4.415,2.561,2.561,103.714,132.704,123.746
0.356,4.464,2.553,2.553,103.674,132.679,123.761
0.365,4.538,2.536,2.536,103.610,132.644,123.773
0.375,4.635,2.512,2.512,103.525,132.599,123.783
0.385,4.750,2.485,2.485,103.422,132.548,123.792
0.394,4.876,2.457,2.457,103.309,132.492,123.799
0.404,5.009,2.433,2.433,103.190,132.433,123.806
0.413,5.143,2.413,2.413,103.071,132.373,123.813
0.423,5.270,2.400,2.400,102.958,132.314,123.821
0.433,5.387,2.386,2.386,102.855,132.259,123.831
0.442,5.490,2.372,2.372,102.766,132.209,123.842
0.452,5.581,2.364,2.364,102.689,132.164,123.854
0.462,5.660,2.361,2.361,102.622,132.124,123.867
0.471,5.729,2.361,2.361,102.563,132.089,123.879
0.481,5.788,2.361,2.361,102.512,132.061,123.890
0.490,5.840,2.362,2.362,102.466,132.039,123.899
0.500,5.885,2.360,2.361,102.424,132.024,123.905
0.510,5.925,2.356,2.358,102.385,132.016,123.909
0.519,5.961,2.352,2.353,102.349,132.013,123.910
0.529,5.992,2.348,2.348,102.318,132.015,123.909
0.538,6.018,2.343,2.343,102.292,132.019,123.908
0.548,6.036,2.340,2.340,102.275,132.025,123.908
0.558,6.047,2.339,2.339,102.266,132.030,123.908
0.567,6.052,2.341,2.341,102.266,132.034,123.911
0.577,6.065,2.341,2.348,102.278,132.034,123.917
0.587,6.085,2.333,2.358,102.297,132.032,123.925
0.596,6.106,2.326,2.371,102.315,132.027,123.933
0.606,6.120,2.320,2.380,102.324,132.020,123.941
0.615,6.131,2.316,2.383,102.318,132.012,123.944
0.625,6.163,2.317,2.377,102.287,132.004,123.943
0.635,6.227,2.324,2.361,102.223,131.997,123.935
0.644,6.331,2.326,2.330,102.120,131.992,123.917
0.654,6.479,2.285,2.284,101.975,131.988,123.890
0.663,6.659,2.231,2.231,101.799,131.985,123.855
0.673,6.854,2.181,2.181,101.608,131.984,123.813
0.683,7.052,2.139,2.139,101.416,131.984,123.766
0.692,7.238,2.108,2.108,101.237,131.983,123.717
0.702,7.397,2.089,2.089,101.086,131.982,123.667
0.712,7.516,2.076,2.076,100.977,131.980,123.619
0.721,7.586,2.044,2.044,100.924,131.977,123.573
0.731,7.625,2.008,2.008,100.918,131.973,123.535
0.740,7.660,1.989,1.989,100.940,131.971,123.508
0.750,7.694,1.970,1.970,100.972,131.972,123.499
0.760,7.720,1.978,1.978,100.995,131.978,123.511
0.769,7.761,2.015,2.015,100.990,131.990,123.549
0.779,7.851,2.051,2.051,100.937,132.010,123.620
0.788,8.013,2.027,2.027,100.819,132.039,123.726
0.798,8.253,2.011,2.011,100.629,132.079,123.868
0.808,8.550,1.973,1.973,100.388,132.127,124.035
0.817,8.879,1.898,1.898,100.118,132.181,124.216
0.827,9.217,1.855,1.854,99.841,132.239,124.399
0.837,9.538,1.848,1.850,99.577,132.299,124.573
0.846,9.818,1.884,1.875,99.351,132.358,124.727
0.856,10.033,1.835,1.917,99.183,132.415,124.849
0.865,10.166,1.727,1.928,99.091,132.467,124.929
0.875,10.233,1.658,1.914,99.064,132.510,124.972
0.885,10.270,1.637,1.893,99.081,132.541,124.984
0.894,10.313,1.650,1.872,99.121,132.555,124.973
0.904,10.362,1.687,1.861,99.162,132.547,124.948
0.913,10.412,1.735,1.871,99.183,132.515,124.916
0.923,10.484,1.791,1.904,99.162,132.453,124.885
0.933,10.612,1.815,1.899,99.079,132.358,124.863
0.942,10.813,1.786,1.835,98.926,132.229,124.853
0.952,11.078,1.756,1.790,98.712,132.072,124.854
0.962,11.399,1.737,1.768,98.448,131.890,124.864
0.971,11.765,1.746,1.786,98.143,131.688,124.881
0.981,12.164,1.799,1.854,97.808,131.472,124.904
0.990,12.586,1.899,1.978,97.452,131.247,124.930
1.000,13.019,1.992,2.152,97.087,131.017,124.958
