"T","Distance","Radius","FreeRadius","X","Y","Z"
0.000,0.000,2.114,2.114,146.349,172.085,127.761
0.002,0.096,2.092,2.092,146.360,172.146,127.835
0.004,0.192,2.073,2.073,146.370,172.207,127.907
0.006,0.286,2.058,2.058,146.378,172.272,127.976
0.008,0.380,2.050,2.050,146.382,172.341,128.039
0.010,0.474,2.051,2.051,146.382,172.417,128.095
0.012,0.569,2.062,2.062,146.377,172.499,128.141
0.014,0.668,2.080,2.080,146.365,172.591,128.176
0.016,0.775,2.100,2.100,146.345,172.694,128.198
0.018,0.893,2.118,2.118,146.316,172.808,128.206
0.020,1.027,2.130,2.130,146.277,172.936,128.196
0.022,1.176,2.133,2.133,146.229,173.075,128.172
0.024,1.338,2.131,2.131,146.174,173.223,128.136
0.026,1.507,2.127,2.127,146.114,173.374,128.091
0.028,1.679,2.129,2.129,146.050,173.526,128.041
0.030,1.849,2.141,2.141,145.986,173.675,127.988
0.032,2.013,2.165,2.165,145.922,173.816,127.937
0.034,2.165,2.199,2.199,145.860,173.947,127.891
0.036,2.300,2.237,2.237,145.803,174.064,127.852
0.038,2.415,2.272,2.272,145.753,174.162,127.824
0.040,2.506,2.298,2.298,145.710,174.241,127.809
0.042,2.577,2.313,2.313,145.673,174.302,127.803
0.044,2.632,2.316,2.316,145.643,174.348,127.806
0.046,2.674,2.312,2.312,145.618,174.381,127.814
0.048,2.706,2.304,2.304,145.598,174.404,127.825
0.051,2.731,2.296,2.296,145.582,174.418,127.838
0.053,2.750,2.288,2.288,145.568,174.426,127.848
0.055,2.763,2.284,2.284,145.557,174.430,127.855
0.057,2.774,2.281,2.281,145.548,174.433,127.855
0.059,2.786,2.280,2.280,145.539,174.437,127.848
0.061,2.803,2.281,2.281,145.531,174.442,127.833
0.063,2.826,2.283,2.283,145.523,174.448,127.812
0.065,2.853,2.287,2.287,145.515,174.454,127.787
0.067,2.884,2.291,2.291,145.507,174.462,127.759
0.069,2.917,2.296,2.296,145.498,174.470,127.728
0.071,2.950,2.300,2.300,145.488,174.480,127.697
0.073,2.984,2.303,2.303,145.478,174.490,127.667
0.075,3.016,2.305,2.305,145.466,174.500,127.640
0.077,3.046,2.306,2.306,145.453,174.512,127.615
0.079,3.073,2.305,2.305,145.439,174.524,127.595
0.081,3.096,2.301,2.301,145.426,174.535,127.580
0.083,3.115,2.295,2.295,145.414,174.546,127.570
0.085,3.128,2.288,2.288,145.405,174.554,127.564
0.087,3.137,2.283,2.283,145.401,174.561,127.565
0.089,3.144,2.283,2.283,145.401,174.565,127.571
0.091,3.159,2.289,2.289,145.409,174.565,127.584
0.093,3.184,2.303,2.303,145.424,174.562,127.603
0.095,3.220,2.320,2.320,145.449,174.554,127.629
0.097,3.267,2.337,2.337,145.481,174.542,127.661
0.099,3.314,2.347,2.347,145.514,174.529,127.692
0.101,3.354,2.346,2.346,145.543,174.521,127.719
0.103,3.378,2.330,2.330,145.560,174.519,127.735
0.105,3.388,2.301,2.301,145.558,174.529,127.735
0.107,3.429,2.261,2.261,145.533,174.554,127.713
0.109,3.515,2.213,2.213,145.476,174.598,127.665
0.111,3.656,2.159,2.159,145.381,174.664,127.586
0.113,3.860,2.104,2.104,145.242,174.756,127.468
0.115,4.133,2.058,2.058,145.055,174.877,127.310
0.117,4.463,2.032,2.032,144.828,175.022,127.119
0.119,4.835,2.037,2.037,144.573,175.185,126.903
0.121,5.232,2.085,2.085,144.300,175.360,126.674
0.123,5.638,2.182,2.182,144.022,175.541,126.440
0.125,6.037,2.312,2.312,143.750,175.721,126.211
0.127,6.412,2.455,2.455,143.496,175.895,125.997
0.129,6.748,2.590,2.590,143.270,176.056,125.807
0.131,7.028,2.696,2.696,143.085,176.198,125.652
0.133,7.238,2.759,2.759,142.951,176.315,125.540
0.135,7.379,2.784,2.784,142.867,176.406,125.471
0.137,7.464,2.782,2.782,142.827,176.472,125.437
0.139,7.508,2.765,2.765,142.820,176.515,125.429
0.141,7.539,2.743,2.743,142.840,176.536,125.440
0.143,7.582,2.728,2.728,142.877,176.537,125.462
0.145,7.637,2.720,2.720,142.924,176.520,125.486
0.147,7.698,2.721,2.721,142.971,176.486,125.505
0.149,7.761,2.732,2.732,143.010,176.437,125.511
0.152,7.830,2.755,2.755,143.034,176.375,125.496
0.154,7.914,2.788,2.788,143.037,176.301,125.456
0.156,8.015,2.827,2.827,143.024,176.220,125.396
0.158,8.132,2.867,2.867,142.996,176.135,125.321
0.160,8.257,2.902,2.902,142.959,176.049,125.238
0.162,8.384,2.925,2.925,142.915,175.966,125.152
0.164,8.507,2.934,2.934,142.868,175.891,125.067
0.166,8.617,2.931,2.931,142.822,175.826,124.991
0.168,8.709,2.918,2.918,142.781,175.775,124.928
0.170,8.773,2.900,2.900,142.747,175.741,124.884
0.172,8.807,2.881,2.881,142.725,175.728,124.862
0.174,8.820,2.864,2.864,142.712,175.731,124.860
0.176,8.837,2.851,2.851,142.707,175.743,124.870
0.178,8.861,2.843,2.843,142.708,175.760,124.886
0.180,8.883,2.841,2.841,142.712,175.775,124.903
0.182,8.897,2.847,2.847,142.717,175.782,124.913
0.184,8.905,2.861,2.861,142.722,175.775,124.911
0.186,8.939,2.882,2.882,142.723,175.748,124.891
0.188,9.007,2.908,2.908,142.719,175.696,124.846
0.190,9.120,2.938,2.938,142.708,175.613,124.771
0.192,9.276,2.970,2.970,142.690,175.500,124.666
0.194,9.465,3.001,3.001,142.666,175.364,124.536
0.196,9.679,3.032,3.032,142.636,175.212,124.389
0.198,9.909,3.060,3.060,142.603,175.049,124.230
0.200,10.145,3.085,3.085,142.567,174.884,124.065
0.202,10.379,3.105,3.105,142.530,174.723,123.899
0.204,10.602,3.121,3.121,142.492,174.572,123.740
0.206,10.804,3.132,3.132,142.455,174.439,123.592
0.208,10.978,3.143,3.143,142.421,174.330,123.461
0.210,11.118,3.153,3.153,142.389,174.247,123.352
0.212,11.229,3.167,3.167,142.361,174.189,123.262
0.214,11.316,3.184,3.184,142.337,174.151,123.188
0.216,11.381,3.204,3.204,142.316,174.129,123.130
0.218,11.431,3.224,3.224,142.299,174.119,123.084
0.220,11.469,3.242,3.242,142.287,174.118,123.048
0.222,11.498,3.257,3.257,142.279,174.121,123.021
0.224,11.520,3.267,3.267,142.275,174.125,122.999
0.226,11.539,3.271,3.271,142.277,174.125,122.981
0.228,11.558,3.272,3.272,142.284,174.118,122.964
0.230,11.583,3.269,3.269,142.296,174.105,122.947
0.232,11.614,3.265,3.265,142.313,174.087,122.927
0.234,11.654,3.259,3.259,142.336,174.064,122.904
0.236,11.701,3.251,3.251,142.363,174.039,122.875
0.238,11.757,3.241,3.241,142.396,174.012,122.839
0.240,11.823,3.228,3.228,142.435,173.985,122.793
0.242,11.899,3.212,3.212,142.479,173.958,122.736
0.244,11.988,3.191,3.191,142.528,173.933,122.667
0.246,12.090,3.168,3.168,142.582,173.912,122.583
0.248,12.205,3.142,3.142,142.641,173.894,122.487
0.251,12.329,3.114,3.114,142.703,173.878,122.380
0.253,12.458,3.085,3.085,142.766,173.866,122.268
0.255,12.590,3.056,3.056,142.830,173.855,122.153
0.257,12.720,3.027,3.027,142.891,173.845,122.039
0.259,12.844,2.999,2.999,142.950,173.836,121.929
0.261,12.959,2.973,2.973,143.003,173.828,121.828
0.263,13.061,2.949,2.949,143.051,173.819,121.738
0.265,13.146,2.929,2.929,143.090,173.809,121.664
0.267,13.213,2.911,2.911,143.121,173.799,121.605
0.269,13.266,2.896,2.896,143.145,173.787,121.559
0.271,13.310,2.884,2.884,143.162,173.775,121.521
0.273,13.349,2.874,2.874,143.175,173.761,121.487
0.275,13.387,2.866,2.866,143.184,173.746,121.453
0.277,13.430,2.858,2.858,143.191,173.730,121.413
0.279,13.482,2.851,2.851,143.196,173.713,121.364
0.281,13.548,2.841,2.841,143.202,173.695,121.302
0.283,13.631,2.828,2.828,143.209,173.676,121.222
0.285,13.735,2.811,2.811,143.219,173.656,121.120
0.287,13.858,2.789,2.789,143.232,173.635,120.999
0.289,13.997,2.761,2.761,143.248,173.614,120.863
0.291,14.147,2.726,2.726,143.266,173.594,120.715
0.293,14.306,2.685,2.685,143.287,173.575,120.559
0.295,14.469,2.638,2.638,143.310,173.559,120.398
0.297,14.632,2.588,2.588,143.336,173.544,120.238
0.299,14.792,2.539,2.539,143.364,173.532,120.080
0.301,14.946,2.498,2.498,143.394,173.524,119.930
0.303,15.090,2.468,2.468,143.427,173.520,119.790
0.305,15.222,2.452,2.452,143.461,173.520,119.662
0.307,15.346,2.448,2.448,143.497,173.522,119.544
0.309,15.461,2.454,2.454,143.533,173.525,119.434
0.311,15.570,2.465,2.465,143.570,173.529,119.331
0.313,15.674,2.478,2.478,143.606,173.531,119.234
0.315,15.774,2.491,2.491,143.641,173.532,119.141
0.317,15.871,2.501,2.501,143.675,173.528,119.050
0.319,15.967,2.509,2.509,143.707,173.520,118.960
0.321,16.063,2.515,2.515,143.736,173.506,118.869
0.323,16.161,2.516,2.516,143.762,173.485,118.778
0.325,16.260,2.514,2.514,143.787,173.458,118.685
0.327,16.360,2.509,2.509,143.811,173.424,118.594
0.329,16.460,2.502,2.502,143.836,173.385,118.506
0.331,16.559,2.495,2.495,143.861,173.340,118.421
0.333,16.657,2.487,2.487,143.890,173.289,118.342
0.335,16.755,2.481,2.481,143.921,173.233,118.269
0.337,16.851,2.476,2.476,143.958,173.171,118.204
0.339,16.947,2.475,2.475,144.000,173.105,118.149
0.341,17.044,2.477,2.477,144.048,173.035,118.103
0.343,17.143,2.482,2.482,144.100,172.961,118.063
0.345,17.244,2.492,2.492,144.152,172.884,118.023
0.347,17.348,2.503,2.503,144.203,172.805,117.978
0.349,17.455,2.512,2.512,144.248,172.725,117.922
0.352,17.569,2.514,2.514,144.284,172.646,117.850
0.354,17.693,2.506,2.506,144.309,172.567,117.757
0.356,17.837,2.487,2.487,144.319,172.490,117.636
0.358,18.008,2.463,2.463,144.311,172.416,117.482
0.360,18.214,2.443,2.443,144.282,172.346,117.290
0.362,18.456,2.437,2.437,144.233,172.280,117.063
0.364,18.723,2.455,2.455,144.169,172.219,116.811
0.366,19.008,2.501,2.501,144.093,172.163,116.542
0.368,19.299,2.572,2.572,144.009,172.114,116.268
0.370,19.585,2.659,2.659,143.923,172.072,115.998
0.372,19.858,2.753,2.753,143.838,172.037,115.741
0.374,20.106,2.848,2.848,143.758,172.010,115.508
0.376,20.318,2.935,2.935,143.689,171.992,115.309
0.378,20.484,3.012,3.012,143.634,171.983,115.152
0.380,20.599,3.076,3.076,143.595,171.982,115.044
0.382,20.671,3.124,3.124,143.569,171.990,114.977
0.384,20.711,3.154,3.154,143.553,172.003,114.943
0.386,20.732,3.164,3.164,143.543,172.019,114.934
0.388,20.755,3.159,3.159,143.536,172.039,114.943
0.390,20.782,3.145,3.145,143.527,172.058,114.960
0.392,20.812,3.126,3.126,143.513,172.076,114.979
0.394,20.841,3.107,3.107,143.490,172.091,114.990
0.396,20.878,3.094,3.094,143.455,172.101,114.987
0.398,20.934,3.086,3.086,143.405,172.104,114.961
0.400,21.011,3.083,3.083,143.343,172.100,114.917
0.402,21.103,3.084,3.084,143.272,172.086,114.859
0.404,21.205,3.089,3.089,143.198,172.062,114.793
0.406,21.311,3.095,3.095,143.125,172.027,114.725
0.408,21.416,3.100,3.100,143.057,171.979,114.661
0.410,21.517,3.100,3.100,142.999,171.917,114.605
0.412,21.614,3.092,3.092,142.955,171.840,114.565
0.414,21.712,3.071,3.071,142.930,171.748,114.546
0.416,21.822,3.036,3.036,142.928,171.638,114.553
0.418,21.954,2.990,2.990,142.949,171.512,114.586
0.420,22.108,2.937,2.937,142.988,171.373,114.640
0.422,22.280,2.884,2.884,143.041,171.224,114.709
0.424,22.465,2.834,2.834,143.102,171.068,114.788
0.426,22.656,2.792,2.792,143.167,170.908,114.871
0.428,22.848,2.757,2.757,143.231,170.747,114.952
0.430,23.033,2.728,2.728,143.290,170.589,115.027
0.432,23.205,2.703,2.703,143.338,170.435,115.089
0.434,23.361,2.680,2.680,143.371,170.290,115.133
0.436,23.499,2.658,2.658,143.387,170.155,115.157
0.438,23.626,2.638,2.638,143.389,170.028,115.167
0.440,23.747,2.621,2.621,143.379,169.908,115.170
0.442,23.863,2.608,2.608,143.361,169.793,115.173
0.444,23.978,2.600,2.600,143.339,169.681,115.183
0.446,24.093,2.597,2.597,143.316,169.571,115.207
0.448,24.214,2.596,2.596,143.296,169.459,115.252
0.451,24.350,2.590,2.590,143.283,169.346,115.325
0.453,24.509,2.575,2.575,143.279,169.229,115.432
0.455,24.702,2.545,2.545,143.287,169.105,115.580
0.457,24.926,2.499,2.499,143.307,168.978,115.763
0.459,25.172,2.442,2.442,143.336,168.848,115.970
0.461,25.432,2.382,2.382,143.373,168.718,116.193
0.463,25.696,2.328,2.328,143.413,168.591,116.421
0.465,25.955,2.289,2.289,143.455,168.467,116.644
0.467,26.198,2.271,2.271,143.497,168.350,116.852
0.469,26.415,2.271,2.271,143.536,168.241,117.036
0.471,26.597,2.284,2.284,143.570,168.143,117.186
0.473,26.736,2.304,2.304,143.595,168.057,117.293
0.475,26.834,2.327,2.327,143.613,167.984,117.354
0.477,26.901,2.347,2.347,143.626,167.922,117.378
0.479,26.957,2.364,2.364,143.635,167.868,117.371
0.481,27.014,2.377,2.377,143.643,167.820,117.340
0.483,27.080,2.386,2.386,143.653,167.776,117.293
0.485,27.151,2.391,2.391,143.666,167.734,117.236
0.487,27.226,2.390,2.390,143.684,167.691,117.177
0.489,27.302,2.385,2.385,143.711,167.646,117.123
0.491,27.377,2.376,2.376,143.749,167.596,117.081
0.493,27.455,2.363,2.363,143.797,167.540,117.056
0.495,27.540,2.345,2.345,143.855,167.480,117.046
0.497,27.630,2.325,2.325,143.919,167.415,117.048
0.499,27.726,2.303,2.303,143.988,167.349,117.058
0.501,27.824,2.282,2.282,144.057,167.282,117.075
0.503,27.921,2.263,2.263,144.126,167.217,117.096
0.505,28.014,2.250,2.250,144.190,167.153,117.117
0.507,28.099,2.243,2.243,144.248,167.094,117.136
0.509,28.173,2.242,2.242,144.297,167.040,117.149
0.511,28.234,2.243,2.243,144.335,166.993,117.155
0.513,28.288,2.245,2.245,144.367,166.949,117.153
0.515,28.342,2.246,2.246,144.398,166.906,117.145
0.517,28.404,2.244,2.244,144.437,166.860,117.132
0.519,28.481,2.239,2.239,144.490,166.807,117.115
0.521,28.580,2.229,2.229,144.563,166.743,117.094
0.523,28.709,2.215,2.215,144.664,166.665,117.071
0.525,28.877,2.196,2.196,144.799,166.569,117.048
0.527,29.089,2.173,2.173,144.975,166.452,117.025
0.529,29.355,2.155,2.155,145.199,166.310,117.003
0.531,29.672,2.154,2.154,145.468,166.144,116.984
0.533,30.026,2.179,2.179,145.771,165.961,116.967
0.535,30.405,2.241,2.241,146.096,165.768,116.953
0.537,30.794,2.347,2.347,146.431,165.569,116.943
0.539,31.182,2.486,2.486,146.766,165.374,116.938
0.541,31.554,2.642,2.642,147.087,165.186,116.937
0.543,31.898,2.799,2.799,147.385,165.014,116.942
0.545,32.199,2.942,2.942,147.646,164.864,116.953
0.547,32.445,3.058,3.058,147.859,164.742,116.970
0.549,32.629,3.147,3.147,148.018,164.652,116.993
0.552,32.757,3.211,3.211,148.127,164.592,117.020
0.554,32.839,3.253,3.253,148.197,164.559,117.048
0.556,32.885,3.275,3.275,148.233,164.548,117.074
0.558,32.911,3.279,3.279,148.243,164.557,117.097
0.560,32.941,3.268,3.268,148.237,164.582,117.112
0.562,32.983,3.242,3.242,148.221,164.620,117.118
0.564,33.033,3.203,3.203,148.204,164.667,117.111
0.566,33.092,3.153,3.153,148.193,164.720,117.089
0.568,33.160,3.093,3.093,148.195,164.776,117.050
0.570,33.240,3.033,3.033,148.213,164.831,116.995
0.572,33.335,2.980,2.980,148.248,164.884,116.925
0.574,33.443,2.944,2.944,148.300,164.931,116.842
0.576,33.567,2.935,2.935,148.370,164.970,116.747
0.578,33.705,2.957,2.957,148.458,164.998,116.644
0.580,33.859,3.003,3.003,148.564,165.013,116.533
0.582,34.030,3.060,3.060,148.689,165.013,116.417
0.584,34.219,3.119,3.119,148.834,164.993,116.298
0.586,34.427,3.166,3.166,148.999,164.953,116.177
0.588,34.655,3.194,3.194,149.182,164.892,116.055
0.590,34.900,3.205,3.205,149.380,164.814,115.936
0.592,35.157,3.202,3.202,149.589,164.720,115.819
0.594,35.422,3.192,3.192,149.804,164.613,115.706
0.596,35.691,3.179,3.179,150.022,164.498,115.600
0.598,35.958,3.166,3.166,150.239,164.377,115.500
0.600,36.220,3.157,3.157,150.451,164.252,115.409
0.602,36.472,3.151,3.151,150.653,164.127,115.329
0.604,36.707,3.150,3.150,150.843,164.005,115.260
0.606,36.924,3.156,3.156,151.017,163.888,115.203
0.608,37.123,3.169,3.169,151.174,163.775,115.159
0.610,37.304,3.188,3.188,151.314,163.665,115.127
0.612,37.469,3.211,3.211,151.438,163.558,115.106
0.614,37.619,3.237,3.237,151.545,163.453,115.097
0.616,37.758,3.265,3.265,151.635,163.348,115.098
0.618,37.886,3.293,3.293,151.709,163.244,115.109
0.620,38.008,3.319,3.319,151.765,163.138,115.131
0.622,38.126,3.343,3.343,151.805,163.031,115.162
0.624,38.246,3.362,3.362,151.829,162.921,115.202
0.626,38.368,3.377,3.377,151.839,162.808,115.250
0.628,38.495,3.385,3.385,151.842,162.694,115.306
0.630,38.626,3.386,3.386,151.843,162.579,115.369
0.632,38.761,3.381,3.381,151.846,162.464,115.437
0.634,38.897,3.370,3.370,151.858,162.349,115.510
0.636,39.037,3.353,3.353,151.882,162.234,115.587
0.638,39.182,3.331,3.331,151.925,162.121,115.667
0.640,39.336,3.307,3.307,151.992,162.011,115.750
0.642,39.502,3.285,3.285,152.088,161.903,115.833
0.644,39.685,3.268,3.268,152.212,161.799,115.917
0.646,39.880,3.260,3.260,152.362,161.703,115.997
0.648,40.086,3.263,3.263,152.532,161.617,116.073
0.651,40.297,3.277,3.277,152.718,161.543,116.142
0.653,40.511,3.299,3.299,152.915,161.484,116.202
0.655,40.724,3.325,3.325,153.118,161.443,116.249
0.657,40.932,3.355,3.355,153.323,161.423,116.283
0.659,41.135,3.386,3.386,153.526,161.426,116.300
0.661,41.333,3.419,3.419,153.720,161.456,116.298
0.663,41.526,3.454,3.454,153.904,161.512,116.278
0.665,41.716,3.492,3.492,154.075,161.588,116.243
0.667,41.902,3.535,3.535,154.233,161.676,116.200
0.669,42.078,3.581,3.581,154.377,161.768,116.156
0.671,42.240,3.628,3.628,154.506,161.857,116.116
0.673,42.380,3.669,3.669,154.619,161.934,116.087
0.675,42.494,3.701,3.701,154.716,161.993,116.074
0.677,42.580,3.717,3.717,154.795,162.025,116.085
0.679,42.653,3.715,3.715,154.856,162.023,116.124
0.681,42.748,3.700,3.700,154.899,161.980,116.198
0.683,42.882,3.678,3.678,154.923,161.900,116.302
0.685,43.051,3.655,3.655,154.932,161.791,116.430
0.687,43.244,3.638,3.638,154.926,161.662,116.575
0.689,43.452,3.632,3.632,154.908,161.523,116.729
0.691,43.665,3.633,3.633,154.878,161.382,116.884
0.693,43.871,3.636,3.636,154.839,161.247,117.035
0.695,44.059,3.635,3.635,154.793,161.127,117.173
0.697,44.219,3.627,3.627,154.741,161.032,117.291
0.699,44.343,3.607,3.607,154.685,160.970,117.382
0.701,44.433,3.583,3.583,154.629,160.942,117.446
0.703,44.498,3.562,3.562,154.580,160.943,117.489
0.705,44.548,3.553,3.553,154.546,160.965,117.519
0.707,44.594,3.565,3.565,154.534,161.003,117.543
0.709,44.649,3.602,3.602,154.551,161.048,117.568
0.711,44.728,3.643,3.643,154.605,161.095,117.602
0.713,44.846,3.665,3.665,154.704,161.137,117.651
0.715,45.014,3.643,3.643,154.853,161.167,117.724
0.717,45.247,3.553,3.553,155.062,161.178,117.827
0.719,45.550,3.380,3.380,155.331,161.166,117.964
0.721,45.912,3.146,3.146,155.651,161.133,118.132
0.723,46.319,2.886,2.886,156.005,161.082,118.323
0.725,46.753,2.632,2.632,156.381,161.015,118.532
0.727,47.201,2.418,2.418,156.762,160.935,118.751
0.729,47.646,2.268,2.268,157.136,160.846,118.976
0.731,48.072,2.176,2.176,157.487,160.751,119.198
0.733,48.465,2.126,2.126,157.801,160.652,119.413
0.735,48.810,2.105,2.105,158.064,160.553,119.613
0.737,49.094,2.097,2.097,158.262,160.456,119.793
0.739,49.325,2.089,2.089,158.401,160.365,119.953
0.741,49.514,2.083,2.083,158.491,160.281,120.096
0.743,49.672,2.079,2.079,158.545,160.208,120.225
0.745,49.808,2.080,2.080,158.575,160.149,120.344
0.747,49.929,2.089,2.089,158.593,160.105,120.456
0.749,50.041,2.106,2.106,158.611,160.080,120.563
0.752,50.151,2.130,2.130,158.641,160.077,120.669
0.754,50.274,2.155,2.155,158.695,160.098,120.777
0.756,50.426,2.180,2.180,158.785,160.146,120.890
0.758,50.616,2.199,2.199,158.914,160.219,121.009
0.760,50.838,2.211,2.211,159.074,160.312,121.131
0.762,51.081,2.215,2.215,159.255,160.420,121.253
0.764,51.335,2.211,2.211,159.447,160.537,121.372
0.766,51.591,2.200,2.200,159.643,160.656,121.485
0.768,51.837,2.183,2.183,159.833,160.773,121.590
0.770,52.063,2.160,2.160,160.007,160.881,121.683
0.772,52.256,2.136,2.136,160.157,160.974,121.762
0.774,52.407,2.112,2.112,160.273,161.047,121.824
0.776,52.508,2.092,2.092,160.350,161.096,121.867
0.778,52.565,2.080,2.080,160.392,161.123,121.894
0.780,52.586,2.077,2.077,160.408,161.132,121.906
0.782,52.594,2.083,2.083,160.402,161.127,121.907
0.784,52.620,2.095,2.095,160.384,161.109,121.900
0.786,52.658,2.111,2.111,160.358,161.085,121.888
0.788,52.699,2.130,2.130,160.334,161.055,121.873
0.790,52.736,2.149,2.149,160.318,161.026,121.857
0.792,52.766,2.167,2.167,160.316,160.999,121.845
0.794,52.795,2.182,2.182,160.335,160.978,121.838
0.796,52.837,2.192,2.192,160.375,160.964,121.837
0.798,52.895,2.195,2.195,160.432,160.956,121.841
0.800,52.967,2.191,2.191,160.503,160.955,121.849
0.802,53.048,2.181,2.181,160.584,160.958,121.859
0.804,53.137,2.167,2.167,160.672,160.967,121.871
0.806,53.229,2.150,2.150,160.762,160.980,121.884
0.808,53.321,2.134,2.134,160.851,160.997,121.897
0.810,53.408,2.119,2.119,160.935,161.018,121.908
0.812,53.488,2.107,2.107,161.011,161.041,121.918
0.814,53.561,2.098,2.098,161.078,161.068,121.924
0.816,53.627,2.093,2.093,161.138,161.097,121.928
0.818,53.691,2.091,2.091,161.194,161.128,121.929
0.820,53.755,2.094,2.094,161.248,161.162,121.928
0.822,53.821,2.099,2.099,161.302,161.198,121.924
0.824,53.891,2.105,2.105,161.360,161.237,121.918
