"T","Distance","Radius","FreeRadius","X","Y","Z"
0.000,0.000,1.815,1.815,131.566,173.780,131.596
0.001,0.172,1.889,1.889,131.706,173.794,131.696
0.002,0.342,1.962,1.962,131.844,173.809,131.794
0.004,0.508,2.033,2.033,131.978,173.823,131.890
0.005,0.669,2.102,2.102,132.108,173.837,131.983
0.006,0.821,2.167,2.167,132.232,173.850,132.071
0.007,0.963,2.228,2.228,132.347,173.863,132.153
0.009,1.093,2.284,2.284,132.453,173.876,132.228
0.010,1.209,2.334,2.334,132.547,173.887,132.295
0.011,1.310,2.378,2.378,132.628,173.898,132.353
0.012,1.392,2.414,2.414,132.695,173.908,132.400
0.014,1.457,2.444,2.444,132.748,173.917,132.437
0.015,1.507,2.469,2.469,132.789,173.926,132.464
0.016,1.544,2.487,2.487,132.819,173.937,132.482
0.017,1.570,2.501,2.501,132.840,173.949,132.491
0.018,1.590,2.509,2.509,132.855,173.963,132.492
0.020,1.611,2.513,2.513,132.864,173.981,132.486
0.021,1.638,2.513,2.513,132.870,174.003,132.473
0.022,1.671,2.510,2.510,132.874,174.030,132.454
0.023,1.712,2.503,2.503,132.878,174.062,132.429
0.025,1.760,2.495,2.495,132.884,174.100,132.399
0.026,1.815,2.485,2.485,132.891,174.144,132.366
0.027,1.877,2.475,2.475,132.899,174.193,132.330
0.028,1.944,2.466,2.466,132.908,174.247,132.292
0.029,2.015,2.457,2.457,132.918,174.306,132.254
0.031,2.090,2.450,2.450,132.930,174.370,132.216
0.032,2.168,2.445,2.445,132.942,174.437,132.179
0.033,2.248,2.443,2.443,132.956,174.509,132.145
0.034,2.331,2.441,2.441,132.970,174.584,132.114
0.036,2.415,2.441,2.441,132.985,174.663,132.087
0.037,2.500,2.442,2.442,133.000,174.744,132.065
0.038,2.586,2.444,2.444,133.016,174.826,132.049
0.039,2.671,2.446,2.446,133.030,174.909,132.038
0.041,2.754,2.447,2.447,133.042,174.992,132.033
0.042,2.836,2.448,2.448,133.053,175.073,132.035
0.043,2.916,2.449,2.449,133.061,175.152,132.043
0.044,2.994,2.448,2.448,133.065,175.228,132.058
0.045,3.070,2.446,2.446,133.066,175.300,132.081
0.047,3.143,2.442,2.442,133.062,175.367,132.112
0.048,3.218,2.436,2.436,133.054,175.430,132.150
0.049,3.294,2.427,2.427,133.045,175.492,132.195
0.050,3.375,2.415,2.415,133.037,175.554,132.245
0.052,3.460,2.401,2.401,133.032,175.618,132.301
0.053,3.552,2.383,2.383,133.031,175.688,132.361
0.054,3.651,2.362,2.362,133.037,175.764,132.424
0.055,3.761,2.338,2.338,133.053,175.851,132.490
0.057,3.883,2.310,2.310,133.079,175.949,132.557
0.058,4.020,2.279,2.279,133.119,176.061,132.624
0.059,4.173,2.244,2.244,133.174,176.188,132.691
0.060,4.340,2.206,2.206,133.244,176.326,132.755
0.061,4.518,2.165,2.165,133.327,176.471,132.814
0.063,4.703,2.121,2.121,133.425,176.620,132.865
0.064,4.894,2.075,2.075,133.537,176.768,132.906
0.065,5.087,2.027,2.027,133.662,176.912,132.935
0.066,5.281,1.979,1.979,133.801,177.048,132.949
0.068,5.477,1.931,1.931,133.952,177.172,132.946
0.069,5.675,1.885,1.885,134.117,177.280,132.924
0.070,5.877,1.840,1.840,134.293,177.369,132.880
0.071,6.086,1.799,1.799,134.479,177.440,132.817
0.072,6.299,1.760,1.760,134.669,177.493,132.737
0.074,6.515,1.725,1.725,134.862,177.530,132.645
0.075,6.732,1.694,1.694,135.051,177.554,132.544
0.076,6.945,1.667,1.667,135.235,177.566,132.436
0.077,7.151,1.644,1.644,135.409,177.568,132.325
0.079,7.346,1.625,1.625,135.569,177.561,132.215
0.080,7.524,1.610,1.610,135.711,177.547,132.109
0.081,7.682,1.600,1.600,135.832,177.528,132.009
0.082,7.819,1.595,1.595,135.932,177.504,131.918
0.084,7.939,1.593,1.593,136.015,177.478,131.835
0.085,8.047,1.595,1.595,136.084,177.448,131.758
0.086,8.144,1.599,1.599,136.144,177.417,131.689
0.087,8.233,1.604,1.604,136.198,177.385,131.625
0.088,8.318,1.610,1.610,136.251,177.352,131.567
0.090,8.402,1.616,1.616,136.307,177.320,131.514
0.091,8.487,1.622,1.622,136.369,177.290,131.465
0.092,8.577,1.626,1.626,136.442,177.261,131.419
0.093,8.676,1.629,1.629,136.528,177.234,131.378
0.095,8.782,1.631,1.631,136.624,177.210,131.340
0.096,8.893,1.632,1.632,136.727,177.187,131.307
0.097,9.006,1.632,1.632,136.835,177.165,131.279
0.098,9.119,1.632,1.632,136.943,177.143,131.257
0.100,9.229,1.631,1.631,137.050,177.121,131.242
0.101,9.333,1.629,1.629,137.151,177.099,131.234
0.102,9.430,1.628,1.628,137.245,177.075,131.234
0.103,9.516,1.626,1.626,137.327,177.049,131.243
0.104,9.592,1.624,1.624,137.395,177.022,131.261
0.106,9.661,1.622,1.622,137.453,176.993,131.287
0.107,9.728,1.620,1.620,137.505,176.965,131.318
0.108,9.797,1.618,1.618,137.558,176.941,131.354
0.109,9.869,1.617,1.617,137.616,176.922,131.392
0.111,9.949,1.615,1.615,137.686,176.910,131.430
0.112,10.043,1.614,1.614,137.773,176.908,131.467
0.113,10.158,1.614,1.614,137.882,176.917,131.499
0.114,10.299,1.615,1.615,138.018,176.939,131.526
0.115,10.474,1.618,1.618,138.188,176.976,131.545
0.117,10.683,1.624,1.624,138.390,177.029,131.557
0.118,10.917,1.633,1.633,138.616,177.093,131.561
0.119,11.167,1.647,1.647,138.856,177.164,131.559
0.120,11.425,1.666,1.666,139.102,177.240,131.552
0.122,11.680,1.690,1.690,139.344,177.318,131.542
0.123,11.922,1.719,1.719,139.574,177.392,131.530
0.124,12.143,1.752,1.752,139.784,177.461,131.516
0.125,12.332,1.788,1.788,139.963,177.519,131.502
0.127,12.480,1.823,1.823,140.103,177.565,131.489
0.128,12.581,1.857,1.857,140.199,177.595,131.478
0.129,12.641,1.887,1.887,140.256,177.613,131.470
0.130,12.667,1.912,1.912,140.280,177.620,131.467
0.131,12.669,1.930,1.930,140.281,177.620,131.469
0.133,12.688,1.941,1.941,140.264,177.616,131.477
0.134,12.719,1.944,1.944,140.238,177.611,131.493
0.135,12.757,1.943,1.943,140.210,177.608,131.518
0.136,12.799,1.938,1.938,140.187,177.610,131.553
0.138,12.846,1.931,1.931,140.176,177.620,131.599
0.139,12.908,1.924,1.924,140.185,177.641,131.656
0.140,12.988,1.918,1.918,140.214,177.674,131.723
0.141,13.087,1.916,1.916,140.261,177.718,131.798
0.143,13.202,1.918,1.918,140.323,177.772,131.877
0.144,13.330,1.924,1.924,140.398,177.838,131.958
0.145,13.469,1.936,1.936,140.484,177.914,132.037
0.146,13.616,1.953,1.953,140.577,177.999,132.112
0.147,13.769,1.974,1.974,140.676,178.094,132.179
0.149,13.925,2.000,2.000,140.778,178.198,132.237
0.150,14.084,2.032,2.032,140.881,178.311,132.281
0.151,14.245,2.068,2.068,140.983,178.431,132.312
0.152,14.408,2.109,2.109,141.083,178.559,132.328
0.154,14.572,2.155,2.155,141.181,178.690,132.331
0.155,14.738,2.204,2.204,141.277,178.826,132.321
0.156,14.905,2.256,2.256,141.370,178.963,132.300
0.157,15.072,2.310,2.310,141.459,179.100,132.267
0.158,15.238,2.365,2.365,141.545,179.235,132.224
0.160,15.402,2.420,2.420,141.626,179.368,132.172
0.161,15.564,2.474,2.474,141.703,179.496,132.110
0.162,15.722,2.527,2.527,141.775,179.619,132.040
0.163,15.876,2.577,2.577,141.841,179.735,131.964
0.165,16.025,2.625,2.625,141.902,179.844,131.884
0.166,16.167,2.669,2.669,141.958,179.948,131.803
0.167,16.302,2.710,2.710,142.008,180.044,131.724
0.168,16.428,2.747,2.747,142.053,180.133,131.647
0.170,16.543,2.779,2.779,142.092,180.216,131.577
0.171,16.645,2.806,2.806,142.125,180.291,131.516
0.172,16.734,2.827,2.827,142.153,180.359,131.465
0.173,16.809,2.843,2.843,142.175,180.419,131.427
0.174,16.871,2.855,2.855,142.191,180.473,131.402
0.176,16.923,2.864,2.864,142.203,180.522,131.387
0.177,16.971,2.872,2.872,142.212,180.568,131.381
0.178,17.016,2.880,2.880,142.218,180.613,131.382
0.179,17.062,2.890,2.890,142.223,180.658,131.386
0.181,17.110,2.903,2.903,142.228,180.706,131.393
0.182,17.162,2.921,2.921,142.233,180.758,131.399
0.183,17.220,2.944,2.944,142.239,180.815,131.404
0.184,17.286,2.971,2.971,142.249,180.880,131.404
0.186,17.359,2.999,2.999,142.260,180.952,131.398
0.187,17.435,3.027,3.027,142.271,181.026,131.385
0.188,17.511,3.052,3.052,142.279,181.099,131.364
0.189,17.585,3.073,3.073,142.282,181.165,131.333
0.190,17.654,3.086,3.086,142.278,181.220,131.290
0.192,17.723,3.091,3.091,142.263,181.259,131.235
0.193,17.799,3.084,3.084,142.236,181.278,131.167
0.194,17.893,3.067,3.067,142.193,181.271,131.083
0.195,18.015,3.041,3.041,142.132,181.235,130.984
0.197,18.173,3.008,3.008,142.052,181.166,130.867
0.198,18.362,2.970,2.970,141.957,181.068,130.736
0.199,18.578,2.927,2.927,141.850,180.947,130.593
0.200,18.812,2.882,2.882,141.736,180.809,130.441
0.201,19.056,2.837,2.837,141.622,180.661,130.284
0.203,19.304,2.793,2.793,141.510,180.509,130.124
0.204,19.546,2.750,2.750,141.407,180.358,129.965
0.205,19.777,2.709,2.709,141.317,180.215,129.809
0.206,19.987,2.670,2.670,141.245,180.085,129.659
0.208,20.172,2.632,2.632,141.195,179.976,129.519
0.209,20.332,2.596,2.596,141.168,179.887,129.388
0.210,20.473,2.561,2.561,141.160,179.816,129.267
0.211,20.598,2.527,2.527,141.169,179.761,129.155
0.213,20.714,2.495,2.495,141.190,179.718,129.049
0.214,20.823,2.464,2.464,141.222,179.685,128.951
0.215,20.926,2.434,2.434,141.259,179.659,128.858
0.216,21.025,2.406,2.406,141.299,179.637,128.770
0.217,21.120,2.379,2.379,141.339,179.617,128.686
0.219,21.211,2.355,2.355,141.376,179.595,128.606
0.220,21.299,2.333,2.333,141.407,179.571,128.528
0.221,21.382,2.314,2.314,141.432,179.544,128.453
0.222,21.461,2.298,2.298,141.452,179.516,128.382
0.224,21.534,2.284,2.284,141.469,179.489,128.316
0.225,21.602,2.273,2.273,141.482,179.462,128.255
0.226,21.663,2.265,2.265,141.491,179.437,128.200
0.227,21.716,2.259,2.259,141.499,179.416,128.152
0.229,21.761,2.255,2.255,141.504,179.398,128.111
0.230,21.796,2.253,2.253,141.509,179.386,128.079
0.231,21.821,2.252,2.252,141.512,179.379,128.055
0.232,21.839,2.253,2.253,141.516,179.377,128.038
0.233,21.851,2.255,2.255,141.519,179.378,128.026
0.235,21.859,2.258,2.258,141.522,179.379,128.018
0.236,21.865,2.260,2.260,141.525,179.379,128.013
0.237,21.872,2.260,2.260,141.528,179.375,128.008
0.238,21.884,2.257,2.257,141.532,179.366,128.001
0.240,21.904,2.251,2.251,141.536,179.350,127.991
0.241,21.934,2.239,2.239,141.541,179.324,127.976
0.242,21.977,2.223,2.223,141.547,179.288,127.955
0.243,22.034,2.200,2.200,141.554,179.238,127.925
0.244,22.109,2.171,2.171,141.565,179.177,127.886
0.246,22.200,2.141,2.141,141.581,179.103,127.835
0.247,22.310,2.111,2.111,141.603,179.016,127.771
0.248,22.441,2.084,2.084,141.634,178.916,127.692
0.249,22.594,2.064,2.064,141.674,178.803,127.597
0.251,22.771,2.053,2.053,141.725,178.676,127.484
0.252,22.974,2.053,2.053,141.790,178.537,127.352
0.253,23.204,2.068,2.068,141.869,178.384,127.199
0.254,23.462,2.098,2.098,141.962,178.218,127.025
0.256,23.740,2.140,2.140,142.068,178.044,126.836
0.257,24.030,2.191,2.191,142.182,177.864,126.639
0.258,24.324,2.247,2.247,142.301,177.684,126.440
0.259,24.613,2.305,2.305,142.421,177.507,126.244
0.260,24.890,2.363,2.363,142.539,177.338,126.059
0.262,25.147,2.417,2.417,142.651,177.180,125.892
0.263,25.374,2.464,2.464,142.754,177.037,125.747
0.264,25.565,2.503,2.503,142.844,176.914,125.632
0.265,25.713,2.534,2.534,142.918,176.814,125.552
0.267,25.823,2.560,2.560,142.977,176.735,125.504
0.268,25.902,2.581,2.581,143.020,176.673,125.482
0.269,25.960,2.601,2.601,143.050,176.624,125.478
0.270,26.005,2.620,2.620,143.068,176.583,125.487
0.271,26.045,2.639,2.639,143.075,176.547,125.502
0.273,26.083,2.662,2.662,143.072,176.511,125.516
0.274,26.125,2.688,2.688,143.061,176.472,125.522
0.275,26.176,2.718,2.718,143.042,176.425,125.515
0.276,26.246,2.749,2.749,143.017,176.365,125.488
0.278,26.337,2.780,2.780,142.988,176.294,125.439
0.279,26.446,2.809,2.809,142.955,176.214,125.373
0.280,26.565,2.836,2.836,142.920,176.129,125.296
0.281,26.690,2.859,2.859,142.884,176.044,125.213
0.283,26.813,2.876,2.876,142.849,175.961,125.128
0.284,26.929,2.885,2.885,142.817,175.885,125.047
0.285,27.030,2.889,2.889,142.787,175.820,124.975
0.286,27.111,2.888,2.888,142.763,175.770,124.918
0.287,27.164,2.883,2.883,142.744,175.738,124.879
0.289,27.187,2.877,2.877,142.733,175.726,124.863
0.290,27.194,2.871,2.871,142.727,175.730,124.863
0.291,27.212,2.866,2.866,142.726,175.743,124.875
0.292,27.236,2.864,2.864,142.727,175.760,124.892
0.294,27.257,2.866,2.866,142.729,175.774,124.908
0.295,27.268,2.873,2.873,142.731,175.780,124.916
0.296,27.277,2.884,2.884,142.731,175.771,124.912
0.297,27.315,2.899,2.899,142.728,175.742,124.888
0.299,27.390,2.916,2.916,142.719,175.687,124.838
0.300,27.509,2.936,2.936,142.704,175.600,124.758
0.301,27.669,2.957,2.957,142.683,175.484,124.649
0.302,27.862,2.979,2.979,142.657,175.346,124.518
0.303,28.078,3.002,3.002,142.627,175.192,124.369
0.305,28.308,3.024,3.024,142.594,175.030,124.209
0.306,28.544,3.046,3.046,142.559,174.865,124.044
0.307,28.777,3.068,3.068,142.522,174.705,123.879
0.308,28.997,3.089,3.089,142.486,174.556,123.721
0.310,29.196,3.110,3.110,142.451,174.425,123.575
0.311,29.365,3.130,3.130,142.417,174.319,123.448
0.312,29.502,3.150,3.150,142.387,174.240,123.341
0.313,29.610,3.168,3.168,142.360,174.184,123.253
0.314,29.693,3.186,3.186,142.336,174.148,123.182
0.316,29.757,3.202,3.202,142.315,174.127,123.125
0.317,29.805,3.217,3.217,142.299,174.119,123.080
0.318,29.842,3.231,3.231,142.287,174.118,123.045
0.319,29.871,3.243,3.243,142.279,174.121,123.018
0.321,29.892,3.254,3.254,142.276,174.125,122.997
0.322,29.910,3.264,3.264,142.277,174.124,122.979
0.323,29.930,3.271,3.271,142.285,174.117,122.962
0.324,29.955,3.277,3.277,142.297,174.104,122.945
0.326,29.988,3.281,3.281,142.315,174.085,122.925
0.327,30.028,3.282,3.282,142.337,174.062,122.902
0.328,30.076,3.279,3.279,142.366,174.037,122.872
0.329,30.133,3.274,3.274,142.399,174.010,122.835
0.330,30.199,3.264,3.264,142.438,173.982,122.789
0.332,30.276,3.249,3.249,142.482,173.956,122.731
0.333,30.366,3.229,3.229,142.532,173.931,122.661
0.334,30.469,3.204,3.204,142.587,173.910,122.576
0.335,30.584,3.175,3.175,142.646,173.892,122.479
0.337,30.709,3.142,3.142,142.708,173.877,122.372
0.338,30.838,3.107,3.107,142.771,173.865,122.259
0.339,30.970,3.072,3.072,142.834,173.854,122.144
0.340,31.099,3.037,3.037,142.896,173.844,122.031
0.342,31.223,3.006,3.006,142.954,173.836,121.922
0.343,31.337,2.977,2.977,143.007,173.827,121.821
0.344,31.438,2.954,2.954,143.053,173.818,121.733
0.345,31.521,2.937,2.937,143.092,173.809,121.659
0.346,31.587,2.923,2.923,143.123,173.798,121.602
0.348,31.639,2.913,2.913,143.146,173.787,121.557
0.349,31.682,2.904,2.904,143.163,173.774,121.519
0.350,31.721,2.895,2.895,143.175,173.760,121.485
0.351,31.760,2.885,2.885,143.184,173.745,121.451
0.353,31.803,2.872,2.872,143.191,173.729,121.411
0.354,31.856,2.856,2.856,143.196,173.712,121.361
0.355,31.921,2.835,2.835,143.202,173.694,121.298
0.356,32.005,2.810,2.810,143.210,173.675,121.217
0.357,32.110,2.783,2.783,143.220,173.655,121.115
0.359,32.234,2.753,2.753,143.233,173.634,120.993
0.360,32.373,2.722,2.722,143.249,173.613,120.857
0.361,32.524,2.690,2.690,143.267,173.593,120.708
0.362,32.682,2.659,2.659,143.288,173.575,120.552
0.364,32.845,2.628,2.628,143.311,173.558,120.392
0.365,33.008,2.599,2.599,143.337,173.543,120.232
0.366,33.168,2.572,2.572,143.365,173.532,120.075
0.367,33.321,2.548,2.548,143.395,173.524,119.925
0.369,33.464,2.526,2.526,143.428,173.520,119.786
0.370,33.596,2.507,2.507,143.462,173.520,119.658
0.371,33.719,2.492,2.492,143.498,173.522,119.541
0.372,33.834,2.479,2.479,143.534,173.526,119.431
0.373,33.943,2.471,2.471,143.571,173.529,119.329
0.375,34.046,2.467,2.467,143.607,173.531,119.232
0.376,34.146,2.466,2.466,143.642,173.531,119.139
0.377,34.243,2.468,2.468,143.676,173.528,119.048
0.378,34.338,2.472,2.472,143.707,173.520,118.959
0.380,34.434,2.479,2.479,143.736,173.506,118.868
0.381,34.532,2.486,2.486,143.763,173.485,118.776
0.382,34.631,2.494,2.494,143.787,173.458,118.684
0.383,34.731,2.502,2.502,143.811,173.424,118.594
0.385,34.831,2.509,2.509,143.836,173.385,118.505
0.386,34.930,2.515,2.515,143.862,173.339,118.421
0.387,35.028,2.519,2.519,143.890,173.288,118.342
0.388,35.125,2.521,2.521,143.922,173.232,118.269
0.389,35.221,2.520,2.520,143.958,173.171,118.204
0.391,35.317,2.516,2.516,144.000,173.105,118.149
0.392,35.414,2.509,2.509,144.047,173.035,118.103
0.393,35.512,2.497,2.497,144.099,172.961,118.063
0.394,35.614,2.480,2.480,144.152,172.884,118.023
0.396,35.717,2.460,2.460,144.202,172.806,117.978
0.397,35.824,2.439,2.439,144.247,172.726,117.923
0.398,35.937,2.420,2.420,144.284,172.647,117.851
0.399,36.062,2.406,2.406,144.309,172.568,117.758
0.400,36.205,2.399,2.399,144.319,172.491,117.638
0.402,36.375,2.404,2.404,144.311,172.417,117.485
0.403,36.580,2.423,2.423,144.283,172.347,117.294
0.404,36.820,2.459,2.459,144.235,172.281,117.068
0.405,37.087,2.513,2.513,144.170,172.220,116.817
0.407,37.371,2.582,2.582,144.095,172.165,116.549
0.408,37.661,2.661,2.661,144.011,172.116,116.275
0.409,37.948,2.744,2.744,143.925,172.073,116.005
0.410,38.220,2.829,2.829,143.840,172.038,115.749
0.412,38.468,2.910,2.910,143.761,172.011,115.515
0.413,38.681,2.982,2.982,143.691,171.992,115.315
0.414,38.849,3.041,3.041,143.636,171.983,115.157
0.415,38.966,3.083,3.083,143.596,171.982,115.047
0.416,39.039,3.110,3.110,143.570,171.989,114.979
0.418,39.080,3.123,3.123,143.554,172.002,114.944
0.419,39.102,3.127,3.127,143.544,172.019,114.934
0.420,39.124,3.124,3.124,143.536,172.038,114.942
0.421,39.151,3.117,3.117,143.527,172.057,114.959
0.423,39.181,3.110,3.110,143.514,172.075,114.978
0.424,39.210,3.104,3.104,143.491,172.090,114.990
0.425,39.246,3.103,3.103,143.457,172.101,114.987
0.426,39.300,3.106,3.106,143.408,172.104,114.963
0.428,39.376,3.112,3.112,143.346,172.100,114.920
0.429,39.467,3.118,3.118,143.276,172.087,114.862
0.430,39.569,3.122,3.122,143.203,172.064,114.797
0.431,39.675,3.123,3.123,143.129,172.029,114.729
0.432,39.780,3.119,3.119,143.061,171.982,114.664
0.434,39.881,3.106,3.106,143.002,171.921,114.609
0.435,39.978,3.084,3.084,142.958,171.846,114.568
0.436,40.075,3.053,3.053,142.931,171.755,114.547
0.437,40.184,3.013,3.013,142.928,171.646,114.552
0.439,40.313,2.969,2.969,142.947,171.522,114.583
0.440,40.465,2.922,2.922,142.985,171.384,114.636
0.441,40.636,2.874,2.874,143.036,171.236,114.704
0.442,40.820,2.827,2.827,143.096,171.081,114.782
0.443,41.011,2.785,2.785,143.161,170.921,114.864
0.445,41.202,2.750,2.750,143.225,170.761,114.946
0.446,41.388,2.721,2.721,143.285,170.602,115.021
0.447,41.561,2.699,2.699,143.334,170.448,115.084
0.448,41.718,2.682,2.682,143.369,170.302,115.130
0.450,41.858,2.667,2.667,143.387,170.166,115.156
0.451,41.986,2.653,2.653,143.390,170.039,115.167
0.452,42.107,2.639,2.639,143.381,169.918,115.170
0.453,42.223,2.623,2.623,143.364,169.803,115.173
0.455,42.338,2.602,2.602,143.343,169.691,115.182
0.456,42.453,2.577,2.577,143.320,169.580,115.204
0.457,42.573,2.547,2.547,143.300,169.470,115.246
0.458,42.706,2.515,2.515,143.285,169.357,115.316
0.459,42.862,2.480,2.480,143.279,169.241,115.420
0.461,43.050,2.445,2.445,143.285,169.119,115.563
0.462,43.270,2.411,2.411,143.302,168.993,115.743
0.463,43.514,2.378,2.378,143.329,168.864,115.948
0.464,43.772,2.349,2.349,143.363,168.735,116.169
0.466,44.035,2.324,2.324,143.402,168.608,116.396
0.467,44.294,2.304,2.304,143.444,168.484,116.620
0.468,44.539,2.289,2.289,143.486,168.366,116.830
0.469,44.760,2.278,2.278,143.527,168.256,117.017
0.471,44.948,2.271,2.271,143.564,168.155,117.171
0.472,45.094,2.269,2.269,143.595,168.066,117.282
0.473,45.198,2.271,2.271,143.619,167.989,117.349
0.474,45.273,2.278,2.278,143.638,167.923,117.376
0.475,45.332,2.288,2.288,143.653,167.865,117.372
0.477,45.392,2.302,2.302,143.665,167.814,117.343
0.478,45.457,2.318,2.318,143.677,167.769,117.297
0.479,45.528,2.335,2.335,143.689,167.727,117.242
0.480,45.601,2.350,2.350,143.703,167.686,117.183
0.482,45.671,2.363,2.363,143.720,167.646,117.129
0.483,45.735,2.373,2.373,143.742,167.604,117.086
0.484,45.794,2.377,2.377,143.771,167.558,117.060
0.485,45.855,2.375,2.375,143.805,167.509,117.050
0.486,45.922,2.366,2.366,143.847,167.456,117.052
0.488,45.998,2.351,2.351,143.897,167.400,117.063
0.489,46.083,2.331,2.331,143.954,167.339,117.080
0.490,46.178,2.309,2.309,144.020,167.275,117.100
0.491,46.281,2.285,2.285,144.095,167.207,117.121
0.493,46.393,2.262,2.262,144.178,167.134,117.138
0.494,46.515,2.239,2.239,144.272,167.057,117.149
0.495,46.646,2.219,2.219,144.375,166.976,117.151
0.496,46.785,2.203,2.203,144.486,166.892,117.145
0.498,46.927,2.190,2.190,144.599,166.808,117.131
0.499,47.067,2.180,2.180,144.710,166.725,117.113
0.500,47.201,2.173,2.173,144.815,166.645,117.092
0.501,47.322,2.166,2.166,144.909,166.571,117.070
