"T","Distance","Radius","FreeRadius","X","Y","Z"
0.000,0.000,1.554,1.554,88.138,129.993,209.328
0.008,0.157,1.607,1.607,88.133,130.094,209.448
0.016,0.313,1.664,1.664,88.128,130.194,209.568
0.023,0.468,1.698,1.698,88.123,130.290,209.689
0.031,0.622,1.708,1.708,88.116,130.381,209.813
0.039,0.773,1.738,1.738,88.108,130.466,209.938
0.047,0.922,1.780,1.780,88.098,130.543,210.065
0.054,1.070,1.844,1.844,88.086,130.609,210.196
0.062,1.216,1.904,1.904,88.072,130.664,210.331
0.070,1.362,1.922,1.922,88.055,130.706,210.469
0.078,1.509,1.931,1.931,88.035,130.734,210.613
0.085,1.659,1.938,1.938,88.010,130.750,210.759
0.093,1.810,1.942,1.942,87.979,130.759,210.908
0.101,1.964,1.951,1.951,87.940,130.766,211.056
0.109,2.119,1.968,1.968,87.891,130.775,211.203
0.116,2.276,2.000,2.000,87.831,130.791,211.347
0.124,2.435,2.045,2.045,87.758,130.818,211.485
0.132,2.599,2.118,2.118,87.670,130.861,211.617
0.140,2.772,2.224,2.224,87.566,130.925,211.741
0.147,2.961,2.249,2.249,87.444,131.013,211.854
0.155,3.166,2.244,2.244,87.307,131.126,211.957
0.163,3.384,2.275,2.275,87.161,131.257,212.052
0.171,3.609,2.332,2.332,87.011,131.402,212.138
0.178,3.835,2.411,2.411,86.865,131.554,212.218
0.186,4.055,2.507,2.507,86.728,131.710,212.291
0.194,4.263,2.608,2.608,86.606,131.862,212.360
0.202,4.450,2.711,2.711,86.506,132.007,212.426
0.209,4.613,2.816,2.816,86.433,132.139,212.489
0.217,4.748,2.832,2.832,86.394,132.252,212.550
0.225,4.858,2.790,2.790,86.388,132.343,212.611
0.233,4.953,2.772,2.772,86.408,132.415,212.670
0.240,5.039,2.773,2.773,86.444,132.468,212.727
0.248,5.118,2.788,2.788,86.487,132.505,212.782
0.256,5.187,2.815,2.815,86.528,132.527,212.833
0.264,5.244,2.845,2.845,86.558,132.535,212.881
0.271,5.289,2.876,2.876,86.568,132.532,212.925
0.279,5.334,2.906,2.906,86.549,132.518,212.963
0.287,5.404,2.912,2.912,86.491,132.497,212.997
0.295,5.513,2.894,2.894,86.390,132.468,213.024
0.302,5.655,2.877,2.877,86.254,132.434,213.047
0.310,5.824,2.870,2.870,86.090,132.396,213.064
0.318,6.010,2.873,2.873,85.909,132.356,213.077
0.326,6.204,2.887,2.887,85.719,132.316,213.087
0.333,6.398,2.911,2.911,85.529,132.277,213.093
0.341,6.582,2.942,2.942,85.349,132.241,213.097
0.349,6.748,2.985,2.985,85.186,132.209,213.099
0.357,6.885,3.002,3.002,85.052,132.183,213.099
0.364,6.987,2.982,2.982,84.951,132.164,213.098
0.372,7.056,2.971,2.971,84.884,132.152,213.096
0.380,7.095,2.965,2.965,84.845,132.145,213.094
0.388,7.110,2.961,2.961,84.830,132.143,213.091
0.395,7.116,2.961,2.961,84.836,132.143,213.088
0.403,7.138,2.962,2.962,84.857,132.146,213.086
0.411,7.171,2.964,2.964,84.889,132.150,213.084
0.419,7.210,2.967,2.967,84.929,132.154,213.083
0.426,7.253,2.969,2.969,84.971,132.157,213.083
0.434,7.293,2.970,2.970,85.012,132.157,213.084
0.442,7.329,2.970,2.970,85.048,132.155,213.086
0.450,7.357,2.968,2.968,85.075,132.152,213.088
0.457,7.374,2.966,2.966,85.092,132.148,213.089
0.465,7.378,2.963,2.963,85.094,132.145,213.089
0.473,7.393,2.960,2.960,85.079,132.143,213.086
0.481,7.429,2.956,2.956,85.043,132.143,213.081
0.488,7.489,2.954,2.954,84.984,132.146,213.072
0.496,7.576,2.954,2.954,84.898,132.152,213.058
0.504,7.693,2.958,2.958,84.783,132.163,213.039
0.512,7.839,2.972,2.972,84.640,132.178,213.015
0.519,8.007,2.980,2.980,84.476,132.196,212.986
0.527,8.191,2.978,2.978,84.296,132.217,212.953
0.535,8.384,2.976,2.976,84.108,132.240,212.915
0.543,8.580,2.980,2.980,83.918,132.263,212.873
0.550,8.773,2.990,2.990,83.732,132.286,212.827
0.558,8.956,3.003,3.003,83.557,132.308,212.779
0.566,9.123,3.017,3.017,83.400,132.328,212.727
0.574,9.268,3.029,3.029,83.266,132.344,212.673
0.581,9.390,3.036,3.036,83.158,132.358,212.617
0.589,9.492,3.037,3.037,83.074,132.367,212.560
0.597,9.579,3.033,3.033,83.009,132.375,212.503
0.605,9.654,3.027,3.027,82.959,132.379,212.447
0.612,9.721,3.018,3.018,82.921,132.381,212.392
0.620,9.782,3.010,3.010,82.890,132.381,212.340
0.628,9.838,3.004,3.004,82.861,132.380,212.291
0.636,9.892,3.001,3.001,82.832,132.377,212.247
0.643,9.944,3.005,3.005,82.798,132.373,212.208
0.651,9.997,3.016,3.016,82.757,132.369,212.174
0.659,10.052,3.035,3.035,82.709,132.363,212.147
0.667,10.108,3.057,3.057,82.658,132.358,212.126
0.674,10.162,3.070,3.070,82.606,132.351,212.111
0.682,10.213,3.074,3.074,82.556,132.345,212.102
0.690,10.260,3.078,3.078,82.510,132.338,212.100
0.698,10.301,3.086,3.086,82.470,132.330,212.104
0.705,10.334,3.098,3.098,82.439,132.323,212.114
0.713,10.361,3.111,3.111,82.420,132.315,212.131
0.721,10.385,3.114,3.114,82.414,132.307,212.153
0.729,10.409,3.107,3.107,82.418,132.298,212.175
0.736,10.427,3.100,3.100,82.427,132.290,212.189
0.744,10.440,3.089,3.089,82.434,132.280,212.188
0.752,10.465,3.075,3.075,82.436,132.270,212.165
0.760,10.521,3.057,3.057,82.426,132.259,212.111
0.767,10.618,3.039,3.039,82.400,132.247,212.019
0.775,10.764,3.027,3.027,82.352,132.234,211.881
0.783,10.970,2.980,2.980,82.276,132.219,211.690
0.791,11.242,2.904,2.904,82.169,132.203,211.440
0.798,11.575,2.832,2.832,82.033,132.186,211.136
0.806,11.951,2.783,2.783,81.879,132.169,210.794
0.814,12.351,2.768,2.768,81.716,132.155,210.429
0.822,12.759,2.792,2.792,81.554,132.143,210.055
0.829,13.156,2.854,2.854,81.402,132.136,209.689
0.837,13.524,2.944,2.944,81.270,132.134,209.344
0.845,13.848,3.051,3.051,81.168,132.139,209.038
0.853,14.111,3.137,3.137,81.105,132.153,208.783
0.860,14.300,3.145,3.145,81.090,132.176,208.596
0.868,14.425,3.067,3.067,81.125,132.208,208.480
0.876,14.527,2.989,2.989,81.201,132.247,208.424
0.884,14.644,2.914,2.914,81.308,132.291,208.416
0.891,14.784,2.838,2.838,81.438,132.336,208.446
0.899,14.943,2.770,2.770,81.579,132.382,208.502
0.907,15.110,2.713,2.713,81.724,132.425,208.572
0.915,15.271,2.667,2.667,81.863,132.463,208.646
0.922,15.413,2.637,2.637,81.985,132.493,208.711
0.930,15.523,2.609,2.609,82.082,132.514,208.757
0.938,15.592,2.566,2.566,82.149,132.524,208.777
0.946,15.630,2.538,2.538,82.186,132.524,208.771
0.953,15.662,2.527,2.527,82.199,132.515,208.744
0.961,15.711,2.527,2.527,82.191,132.498,208.698
0.969,15.781,2.538,2.538,82.165,132.476,208.637
0.977,15.870,2.559,2.559,82.124,132.448,208.564
0.984,15.972,2.589,2.589,82.073,132.416,208.481
0.992,16.084,2.626,2.626,82.015,132.382,208.392
1.000,16.200,2.667,2.667,81.953,132.347,208.300
