"T","Distance","Radius","FreeRadius","X","Y","Z"
0.000,0.000,2.114,2.114,146.349,172.085,127.761
0.002,0.091,2.104,2.104,146.359,172.142,127.831
0.003,0.182,2.096,2.096,146.369,172.201,127.900
0.005,0.272,2.087,2.087,146.377,172.262,127.966
0.006,0.361,2.079,2.079,146.382,172.326,128.027
0.008,0.450,2.072,2.072,146.383,172.396,128.081
0.009,0.539,2.065,2.065,146.379,172.473,128.128
0.011,0.631,2.060,2.060,146.370,172.557,128.165
0.012,0.729,2.056,2.056,146.354,172.650,128.191
0.014,0.836,2.054,2.054,146.331,172.753,128.204
0.015,0.955,2.056,2.056,146.299,172.868,128.203
0.017,1.089,2.061,2.061,146.258,172.995,128.188
0.018,1.236,2.071,2.071,146.209,173.130,128.160
0.020,1.392,2.087,2.087,146.155,173.272,128.122
0.021,1.554,2.109,2.109,146.097,173.416,128.077
0.023,1.717,2.136,2.136,146.036,173.559,128.029
0.024,1.878,2.167,2.167,145.975,173.699,127.979
0.026,2.032,2.198,2.198,145.914,173.833,127.931
0.027,2.175,2.229,2.229,145.856,173.956,127.888
0.029,2.302,2.256,2.256,145.802,174.066,127.851
0.030,2.411,2.278,2.278,145.754,174.159,127.825
0.032,2.498,2.292,2.292,145.713,174.235,127.810
0.033,2.568,2.301,2.301,145.678,174.295,127.804
0.035,2.622,2.305,2.305,145.649,174.341,127.805
0.036,2.665,2.304,2.304,145.624,174.374,127.812
0.038,2.697,2.301,2.301,145.604,174.398,127.822
0.039,2.723,2.297,2.297,145.587,174.414,127.833
0.041,2.743,2.292,2.292,145.573,174.423,127.844
0.042,2.758,2.287,2.287,145.562,174.428,127.853
0.044,2.769,2.284,2.284,145.552,174.432,127.856
0.045,2.778,2.281,2.281,145.544,174.435,127.853
0.047,2.792,2.280,2.280,145.536,174.439,127.843
0.048,2.811,2.280,2.280,145.528,174.444,127.827
0.050,2.834,2.282,2.282,145.521,174.449,127.806
0.052,2.861,2.286,2.286,145.513,174.456,127.781
0.053,2.890,2.292,2.292,145.505,174.463,127.753
0.055,2.921,2.298,2.298,145.497,174.471,127.724
0.056,2.953,2.303,2.303,145.488,174.480,127.695
0.058,2.985,2.307,2.307,145.478,174.490,127.667
0.059,3.015,2.308,2.308,145.467,174.500,127.640
0.061,3.043,2.307,2.307,145.454,174.511,127.617
0.062,3.069,2.301,2.301,145.441,174.522,127.598
0.064,3.092,2.293,2.293,145.428,174.533,127.582
0.065,3.111,2.286,2.286,145.417,174.543,127.572
0.067,3.125,2.280,2.280,145.407,174.552,127.565
0.068,3.134,2.277,2.277,145.402,174.559,127.564
0.070,3.141,2.281,2.281,145.400,174.564,127.568
0.071,3.151,2.293,2.293,145.405,174.566,127.577
0.073,3.170,2.312,2.312,145.416,174.564,127.593
0.074,3.199,2.334,2.334,145.434,174.559,127.614
0.076,3.239,2.354,2.354,145.461,174.549,127.642
0.077,3.284,2.368,2.368,145.493,174.537,127.672
0.079,3.328,2.372,2.372,145.524,174.526,127.701
0.080,3.362,2.360,2.360,145.548,174.520,127.724
0.082,3.380,2.329,2.329,145.561,174.520,127.736
0.083,3.393,2.281,2.281,145.556,174.532,127.733
0.085,3.437,2.225,2.225,145.529,174.557,127.710
0.086,3.522,2.168,2.168,145.472,174.600,127.663
0.088,3.656,2.118,2.118,145.382,174.663,127.586
0.089,3.847,2.083,2.083,145.252,174.750,127.477
0.091,4.100,2.070,2.070,145.078,174.862,127.330
0.092,4.407,2.086,2.086,144.868,174.997,127.152
0.094,4.753,2.125,2.125,144.630,175.148,126.952
0.095,5.125,2.183,2.183,144.374,175.312,126.736
0.097,5.509,2.254,2.254,144.111,175.483,126.515
0.098,5.891,2.330,2.330,143.850,175.654,126.295
0.100,6.258,2.407,2.407,143.601,175.822,126.085
0.102,6.595,2.478,2.478,143.373,175.981,125.894
0.103,6.889,2.540,2.540,143.177,176.126,125.729
0.105,7.126,2.593,2.593,143.022,176.250,125.600
0.106,7.299,2.638,2.638,142.915,176.351,125.510
0.108,7.413,2.674,2.674,142.850,176.429,125.457
0.109,7.480,2.704,2.704,142.822,176.485,125.433
0.111,7.516,2.727,2.727,142.823,176.521,125.430
0.112,7.546,2.744,2.744,142.845,176.537,125.443
0.114,7.589,2.757,2.757,142.882,176.536,125.465
0.115,7.642,2.766,2.766,142.926,176.518,125.488
0.117,7.700,2.774,2.774,142.971,176.486,125.505
0.118,7.760,2.782,2.782,143.009,176.440,125.511
0.120,7.824,2.792,2.792,143.032,176.381,125.498
0.121,7.902,2.804,2.804,143.038,176.313,125.463
0.123,7.995,2.821,2.821,143.028,176.237,125.409
0.124,8.103,2.841,2.841,143.004,176.157,125.341
0.126,8.220,2.862,2.862,142.971,176.075,125.264
0.127,8.341,2.881,2.881,142.931,175.995,125.183
0.129,8.460,2.897,2.897,142.887,175.921,125.101
0.130,8.570,2.908,2.908,142.843,175.854,125.025
0.132,8.666,2.912,2.912,142.801,175.799,124.958
0.133,8.742,2.907,2.907,142.765,175.758,124.906
0.135,8.792,2.897,2.897,142.737,175.734,124.873
0.136,8.815,2.884,2.884,142.719,175.727,124.860
0.138,8.826,2.871,2.871,142.710,175.733,124.861
0.139,8.844,2.858,2.858,142.707,175.747,124.873
0.141,8.867,2.850,2.850,142.708,175.763,124.889
0.142,8.888,2.848,2.848,142.712,175.776,124.904
0.144,8.900,2.852,2.852,142.717,175.782,124.914
0.145,8.908,2.863,2.863,142.722,175.775,124.911
0.147,8.939,2.880,2.880,142.723,175.750,124.892
0.148,9.003,2.902,2.902,142.720,175.702,124.851
0.150,9.105,2.929,2.929,142.710,175.626,124.783
0.152,9.246,2.960,2.960,142.694,175.523,124.687
0.153,9.419,2.994,2.994,142.672,175.398,124.569
0.155,9.617,3.031,3.031,142.645,175.257,124.434
0.156,9.831,3.068,3.068,142.615,175.106,124.286
0.158,10.054,3.103,3.103,142.581,174.950,124.131
0.159,10.278,3.135,3.135,142.546,174.794,123.973
0.161,10.495,3.161,3.161,142.511,174.646,123.818
0.162,10.698,3.181,3.181,142.475,174.510,123.672
0.164,10.880,3.193,3.193,142.441,174.392,123.538
0.165,11.032,3.199,3.199,142.410,174.298,123.421
0.167,11.156,3.201,3.201,142.381,174.228,123.324
0.168,11.255,3.202,3.202,142.355,174.178,123.243
0.170,11.332,3.202,3.202,142.333,174.146,123.176
0.171,11.391,3.204,3.204,142.313,174.127,123.123
0.173,11.437,3.210,3.210,142.298,174.119,123.081
0.174,11.473,3.219,3.219,142.286,174.118,123.047
0.176,11.500,3.230,3.230,142.279,174.121,123.021
0.177,11.521,3.243,3.243,142.276,174.124,123.000
0.179,11.539,3.254,3.254,142.277,174.125,122.983
0.180,11.557,3.264,3.264,142.282,174.120,122.967
0.182,11.579,3.270,3.270,142.292,174.108,122.950
0.183,11.608,3.272,3.272,142.307,174.092,122.933
0.185,11.643,3.269,3.269,142.327,174.072,122.912
0.186,11.685,3.263,3.263,142.352,174.048,122.886
0.188,11.735,3.253,3.253,142.381,174.023,122.855
0.189,11.793,3.240,3.240,142.415,173.997,122.816
0.191,11.860,3.224,3.224,142.454,173.972,122.768
0.192,11.937,3.206,3.206,142.498,173.947,122.709
0.194,12.025,3.185,3.185,142.547,173.925,122.639
0.195,12.126,3.162,3.162,142.600,173.906,122.555
0.197,12.238,3.138,3.138,142.657,173.890,122.461
0.198,12.357,3.113,3.113,142.717,173.877,122.359
0.200,12.480,3.086,3.086,142.777,173.865,122.252
0.202,12.605,3.058,3.058,142.838,173.855,122.143
0.203,12.728,3.030,3.030,142.896,173.846,122.036
0.205,12.846,3.001,3.001,142.951,173.838,121.932
0.206,12.955,2.973,2.973,143.002,173.830,121.835
0.208,13.053,2.947,2.947,143.047,173.821,121.748
0.209,13.137,2.924,2.924,143.084,173.811,121.674
0.211,13.204,2.904,2.904,143.114,173.800,121.615
0.212,13.258,2.889,2.889,143.136,173.788,121.567
0.214,13.303,2.878,2.878,143.153,173.774,121.528
0.215,13.342,2.872,2.872,143.165,173.760,121.494
0.217,13.379,2.867,2.867,143.174,173.746,121.460
0.218,13.418,2.864,2.864,143.181,173.731,121.425
0.220,13.462,2.860,2.860,143.187,173.715,121.384
0.221,13.515,2.853,2.853,143.193,173.700,121.334
0.223,13.580,2.843,2.843,143.202,173.685,121.271
0.224,13.661,2.828,2.828,143.213,173.670,121.193
0.226,13.760,2.808,2.808,143.229,173.656,121.096
0.227,13.875,2.783,2.783,143.247,173.642,120.984
0.229,14.003,2.752,2.752,143.268,173.628,120.858
0.230,14.142,2.717,2.717,143.290,173.614,120.721
0.232,14.289,2.675,2.675,143.314,173.599,120.576
0.233,14.443,2.628,2.628,143.337,173.584,120.425
0.235,14.600,2.577,2.577,143.359,173.569,120.271
0.236,14.758,2.525,2.525,143.380,173.552,120.115
0.238,14.915,2.476,2.476,143.398,173.534,119.961
0.239,15.067,2.433,2.433,143.414,173.514,119.810
0.241,15.214,2.399,2.399,143.427,173.494,119.665
0.242,15.353,2.378,2.378,143.439,173.474,119.527
0.244,15.484,2.370,2.370,143.453,173.457,119.399
0.245,15.604,2.374,2.374,143.470,173.444,119.281
0.247,15.713,2.387,2.387,143.494,173.436,119.175
0.248,15.810,2.405,2.405,143.526,173.435,119.083
0.250,15.899,2.425,2.425,143.568,173.443,119.005
0.252,15.982,2.442,2.442,143.622,173.461,118.945
0.253,16.069,2.454,2.454,143.692,173.491,118.903
0.255,16.168,2.459,2.459,143.778,173.535,118.881
0.256,16.284,2.458,2.458,143.880,173.591,118.877
0.258,16.417,2.451,2.451,143.995,173.657,118.890
0.259,16.564,2.440,2.440,144.118,173.731,118.917
0.261,16.719,2.426,2.426,144.246,173.810,118.954
0.262,16.878,2.410,2.410,144.376,173.891,118.999
0.264,17.038,2.392,2.392,144.504,173.972,119.049
0.265,17.192,2.374,2.374,144.626,174.049,119.102
0.267,17.336,2.357,2.357,144.739,174.121,119.155
0.268,17.464,2.340,2.340,144.839,174.185,119.204
0.270,17.572,2.326,2.326,144.923,174.238,119.247
0.271,17.660,2.313,2.313,144.991,174.280,119.285
0.273,17.732,2.304,2.304,145.045,174.313,119.316
0.274,17.788,2.299,2.299,145.088,174.340,119.343
0.276,17.834,2.296,2.296,145.121,174.361,119.366
0.277,17.871,2.295,2.295,145.147,174.378,119.386
0.279,17.902,2.296,2.296,145.169,174.393,119.403
0.280,17.931,2.296,2.296,145.188,174.408,119.418
0.282,17.960,2.296,2.296,145.207,174.425,119.432
0.283,17.993,2.294,2.294,145.228,174.445,119.446
0.285,18.031,2.290,2.290,145.254,174.470,119.460
0.286,18.075,2.284,2.284,145.283,174.499,119.474
0.288,18.123,2.278,2.278,145.316,174.531,119.489
0.289,18.175,2.271,2.271,145.351,174.566,119.505
0.291,18.229,2.264,2.264,145.388,174.602,119.521
0.292,18.283,2.257,2.257,145.425,174.639,119.537
0.294,18.337,2.252,2.252,145.462,174.674,119.553
0.295,18.389,2.249,2.249,145.498,174.708,119.569
0.297,18.438,2.246,2.246,145.532,174.739,119.585
0.298,18.482,2.243,2.243,145.563,174.766,119.602
0.300,18.521,2.240,2.240,145.591,174.789,119.618
0.302,18.555,2.238,2.238,145.615,174.806,119.633
0.303,18.583,2.234,2.234,145.636,174.820,119.647
0.305,18.606,2.230,2.230,145.653,174.830,119.657
0.306,18.623,2.225,2.225,145.668,174.837,119.664
0.308,18.636,2.220,2.220,145.680,174.840,119.666
0.309,18.646,2.216,2.216,145.689,174.841,119.663
0.311,18.658,2.214,2.214,145.696,174.839,119.653
0.312,18.677,2.213,2.213,145.701,174.836,119.635
0.314,18.703,2.216,2.216,145.704,174.831,119.609
0.315,18.738,2.220,2.220,145.706,174.826,119.575
0.317,18.778,2.221,2.221,145.712,174.827,119.536
0.318,18.823,2.215,2.215,145.729,174.841,119.496
0.320,18.882,2.197,2.197,145.760,174.873,119.458
0.321,18.966,2.163,2.163,145.812,174.931,119.426
0.323,19.086,2.108,2.108,145.890,175.020,119.405
0.324,19.254,2.028,2.028,146.000,175.147,119.397
0.326,19.480,1.934,1.934,146.147,175.318,119.407
0.327,19.774,1.842,1.842,146.336,175.540,119.438
0.329,20.144,1.769,1.769,146.573,175.819,119.494
0.330,20.591,1.734,1.734,146.857,176.155,119.575
0.332,21.098,1.752,1.752,147.178,176.534,119.677
0.333,21.646,1.843,1.843,147.523,176.943,119.794
0.335,22.215,2.015,2.015,147.881,177.367,119.921
0.336,22.788,2.250,2.250,148.239,177.794,120.053
0.338,23.343,2.519,2.519,148.586,178.208,120.183
0.339,23.864,2.797,2.797,148.910,178.596,120.306
0.341,24.329,3.056,3.056,149.199,178.944,120.417
0.342,24.721,3.270,3.270,149.441,179.237,120.511
0.344,25.020,3.411,3.411,149.624,179.463,120.581
0.345,25.222,3.470,3.470,149.745,179.618,120.628
0.347,25.340,3.464,3.464,149.814,179.710,120.653
0.348,25.387,3.414,3.414,149.839,179.749,120.662
0.350,25.399,3.339,3.339,149.828,179.745,120.656
0.352,25.454,3.258,3.258,149.792,179.707,120.642
0.353,25.538,3.192,3.192,149.739,179.644,120.621
0.355,25.640,3.159,3.159,149.678,179.567,120.597
0.356,25.744,3.160,3.160,149.618,179.484,120.575
0.358,25.839,3.188,3.188,149.568,179.405,120.559
0.359,25.912,3.233,3.233,149.536,179.340,120.550
0.361,25.961,3.287,3.287,149.525,179.293,120.550
0.362,25.988,3.342,3.342,149.529,179.266,120.553
0.364,26.003,3.389,3.389,149.543,179.262,120.556
0.365,26.032,3.421,3.421,149.564,179.282,120.554
0.367,26.084,3.438,3.438,149.585,179.328,120.544
0.368,26.163,3.445,3.445,149.604,179.402,120.521
0.370,26.275,3.442,3.442,149.614,179.506,120.481
0.371,26.423,3.433,3.433,149.612,179.641,120.420
0.373,26.614,3.421,3.421,149.593,179.810,120.334
0.374,26.851,3.408,3.408,149.552,180.013,120.220
0.376,27.130,3.396,3.396,149.490,180.247,120.079
0.377,27.441,3.386,3.386,149.413,180.501,119.919
0.379,27.772,3.377,3.377,149.324,180.768,119.745
0.380,28.112,3.369,3.369,149.227,181.040,119.563
0.382,28.452,3.363,3.363,149.127,181.307,119.381
0.383,28.778,3.360,3.360,149.028,181.563,119.203
0.385,29.081,3.359,3.359,148.934,181.797,119.036
0.386,29.349,3.360,3.360,148.848,182.002,118.886
0.388,29.571,3.363,3.363,148.776,182.170,118.760
0.389,29.737,3.369,3.369,148.721,182.293,118.662
0.391,29.853,3.378,3.378,148.681,182.376,118.591
0.392,29.928,3.390,3.390,148.653,182.425,118.543
0.394,29.969,3.404,3.404,148.634,182.447,118.514
0.395,29.990,3.422,3.422,148.619,182.451,118.500
0.397,30.005,3.440,3.440,148.607,182.442,118.497
0.398,30.025,3.458,3.458,148.593,182.428,118.502
0.400,30.048,3.473,3.472,148.575,182.417,118.509
0.402,30.075,3.482,3.482,148.549,182.414,118.516
0.403,30.115,3.485,3.484,148.511,182.429,118.519
0.405,30.178,3.478,3.478,148.460,182.465,118.515
0.406,30.265,3.462,3.462,148.396,182.523,118.506
0.408,30.375,3.437,3.439,148.320,182.602,118.498
0.409,30.504,3.407,3.409,148.234,182.698,118.493
0.411,30.652,3.372,3.374,148.139,182.811,118.496
0.412,30.817,3.335,3.336,148.036,182.939,118.511
0.414,30.998,3.297,3.297,147.927,183.080,118.542
0.415,31.195,3.260,3.258,147.813,183.233,118.592
0.417,31.409,3.226,3.222,147.695,183.395,118.666
0.418,31.640,3.197,3.191,147.575,183.565,118.768
0.420,31.891,3.174,3.167,147.455,183.742,118.899
0.421,32.156,3.161,3.154,147.334,183.921,119.053
0.423,32.429,3.158,3.153,147.216,184.099,119.223
0.424,32.705,3.167,3.167,147.102,184.274,119.403
0.426,32.977,3.190,3.198,146.993,184.443,119.586
0.427,33.238,3.224,3.242,146.890,184.601,119.766
0.429,33.481,3.265,3.294,146.796,184.747,119.936
0.430,33.698,3.309,3.349,146.711,184.876,120.089
0.432,33.883,3.352,3.401,146.638,184.986,120.218
0.433,34.029,3.391,3.447,146.577,185.074,120.318
0.435,34.133,3.421,3.481,146.530,185.139,120.384
0.436,34.203,3.442,3.501,146.494,185.185,120.422
0.438,34.245,3.454,3.509,146.469,185.216,120.435
0.439,34.272,3.460,3.507,146.454,185.237,120.428
0.441,34.301,3.460,3.498,146.447,185.253,120.405
0.442,34.339,3.456,3.485,146.446,185.267,120.370
0.444,34.385,3.451,3.469,146.452,185.284,120.327
0.445,34.438,3.445,3.454,146.461,185.309,120.281
0.447,34.497,3.439,3.441,146.473,185.346,120.236
0.448,34.565,3.435,3.430,146.487,185.398,120.196
0.450,34.642,3.432,3.423,146.501,185.467,120.164
0.452,34.728,3.430,3.421,146.513,185.549,120.139
0.453,34.820,3.431,3.424,146.521,185.639,120.121
0.455,34.915,3.435,3.435,146.524,185.733,120.111
0.456,35.011,3.441,3.452,146.519,185.828,120.107
0.458,35.103,3.449,3.475,146.505,185.920,120.111
0.459,35.192,3.456,3.499,146.480,186.004,120.122
0.461,35.276,3.461,3.520,146.441,186.076,120.139
0.462,35.358,3.461,3.537,146.387,186.134,120.164
0.464,35.444,3.454,3.545,146.317,186.171,120.195
0.465,35.539,3.439,3.541,146.232,186.190,120.232
0.467,35.644,3.416,3.525,146.135,186.193,120.273
0.468,35.757,3.386,3.498,146.032,186.182,120.318
0.470,35.874,3.353,3.464,145.926,186.161,120.365
0.471,35.993,3.319,3.426,145.821,186.132,120.412
0.473,36.107,3.287,3.386,145.722,186.099,120.459
0.474,36.213,3.259,3.348,145.632,186.064,120.503
0.476,36.306,3.238,3.313,145.556,186.031,120.544
0.477,36.381,3.223,3.284,145.498,186.001,120.581
0.479,36.434,3.214,3.259,145.460,185.979,120.612
0.480,36.469,3.209,3.238,145.441,185.966,120.637
0.482,36.491,3.205,3.222,145.436,185.961,120.658
0.483,36.509,3.203,3.209,145.438,185.966,120.675
0.485,36.531,3.200,3.200,145.443,185.982,120.690
0.486,36.561,3.194,3.193,145.445,186.008,120.704
0.488,36.602,3.183,3.185,145.440,186.047,120.717
0.489,36.658,3.166,3.175,145.420,186.098,120.731
0.491,36.735,3.140,3.157,145.382,186.162,120.747
0.492,36.836,3.102,3.129,145.320,186.240,120.766
0.494,36.967,3.051,3.088,145.230,186.332,120.788
0.495,37.125,2.984,3.029,145.114,186.436,120.814
0.497,37.306,2.902,2.954,144.976,186.549,120.844
0.498,37.507,2.810,2.866,144.819,186.670,120.878
0.500,37.722,2.712,2.770,144.648,186.795,120.916
0.502,37.947,2.613,2.672,144.467,186.921,120.958
0.503,38.177,2.518,2.575,144.280,187.046,121.004
0.505,38.408,2.432,2.484,144.090,187.168,121.054
0.506,38.635,2.361,2.404,143.902,187.284,121.108
0.508,38.855,2.303,2.337,143.719,187.390,121.167
0.509,39.062,2.259,2.282,143.545,187.486,121.229
0.511,39.257,2.224,2.237,143.383,187.572,121.294
0.512,39.437,2.198,2.203,143.234,187.647,121.360
0.514,39.601,2.178,2.178,143.099,187.713,121.426
0.515,39.747,2.162,2.162,142.981,187.771,121.490
0.517,39.874,2.149,2.154,142.882,187.820,121.552
0.518,39.980,2.138,2.154,142.803,187.863,121.609
0.520,40.064,2.129,2.161,142.746,187.899,121.660
0.521,40.127,2.124,2.177,142.714,187.929,121.704
0.523,40.170,2.122,2.200,142.707,187.953,121.739
0.524,40.208,2.123,2.232,142.725,187.974,121.765
0.526,40.250,2.128,2.270,142.760,187.991,121.781
0.527,40.296,2.136,2.315,142.803,188.007,121.787
0.529,40.343,2.143,2.357,142.847,188.022,121.783
0.530,40.384,2.146,2.392,142.882,188.039,121.769
0.532,40.420,2.142,2.411,142.900,188.058,121.745
0.533,40.462,2.126,2.409,142.893,188.082,121.710
0.535,40.529,2.097,2.378,142.852,188.110,121.666
0.536,40.635,2.050,2.312,142.768,188.146,121.611
0.538,40.791,1.988,2.215,142.634,188.189,121.545
0.539,40.998,1.918,2.100,142.448,188.242,121.470
0.541,41.249,1.844,1.975,142.219,188.303,121.388
0.542,41.533,1.772,1.854,141.957,188.373,121.302
0.544,41.843,1.710,1.745,141.671,188.451,121.215
0.545,42.167,1.662,1.662,141.370,188.537,121.129
0.547,42.497,1.633,1.611,141.065,188.632,121.046
0.548,42.824,1.622,1.591,140.764,188.734,120.971
0.550,43.137,1.627,1.596,140.478,188.844,120.904
0.552,43.430,1.647,1.622,140.216,188.961,120.849
0.553,43.694,1.677,1.662,139.987,189.086,120.809
0.555,43.928,1.718,1.712,139.794,189.216,120.783
0.556,44.137,1.765,1.767,139.633,189.349,120.768
0.558,44.324,1.818,1.823,139.501,189.481,120.760
0.559,44.492,1.872,1.878,139.393,189.610,120.758
0.561,44.642,1.925,1.931,139.307,189.733,120.757
0.562,44.774,1.975,1.981,139.238,189.846,120.754
0.564,44.889,2.017,2.026,139.183,189.946,120.746
0.565,44.986,2.050,2.064,139.138,190.031,120.730
0.567,45.068,2.069,2.095,139.098,190.097,120.703
0.568,45.139,2.078,2.119,139.062,190.143,120.662
0.570,45.209,2.078,2.136,139.026,190.167,120.607
0.571,45.285,2.072,2.148,138.990,190.173,120.541
0.573,45.368,2.065,2.156,138.955,190.164,120.466
0.574,45.460,2.060,2.161,138.919,190.142,120.384
0.576,45.559,2.059,2.165,138.882,190.110,120.299
0.577,45.662,2.066,2.168,138.844,190.070,120.212
0.579,45.767,2.079,2.170,138.804,190.025,120.126
0.580,45.871,2.095,2.171,138.762,189.978,120.043
0.582,45.971,2.113,2.172,138.717,189.931,119.966
0.583,46.066,2.130,2.172,138.670,189.886,119.897
0.585,46.155,2.145,2.171,138.620,189.845,119.836
0.586,46.239,2.155,2.169,138.568,189.808,119.782
0.588,46.318,2.159,2.166,138.515,189.774,119.733
0.589,46.393,2.158,2.163,138.463,189.743,119.689
0.591,46.465,2.152,2.160,138.411,189.716,119.649
0.592,46.532,2.143,2.157,138.361,189.692,119.610
0.594,46.596,2.132,2.156,138.314,189.671,119.573
0.595,46.656,2.118,2.157,138.269,189.655,119.536
0.597,46.713,2.103,2.160,138.229,189.641,119.498
0.598,46.767,2.087,2.165,138.193,189.631,119.458
0.600,46.822,2.071,2.169,138.161,189.623,119.414
0.602,46.880,2.054,2.172,138.132,189.617,119.366
0.603,46.942,2.036,2.172,138.103,189.612,119.310
0.605,47.013,2.018,2.168,138.074,189.606,119.246
0.606,47.092,2.000,2.158,138.044,189.599,119.173
0.608,47.184,1.982,2.141,138.011,189.590,119.088
0.609,47.290,1.965,2.120,137.974,189.577,118.990
0.611,47.411,1.950,2.097,137.931,189.561,118.878
0.612,47.550,1.939,2.075,137.882,189.539,118.749
0.614,47.707,1.932,2.058,137.825,189.512,118.605
0.615,47.879,1.930,2.048,137.763,189.480,118.448
0.617,48.059,1.935,2.047,137.698,189.446,118.284
0.618,48.243,1.947,2.057,137.631,189.409,118.116
