"T","Distance","Radius","FreeRadius","X","Y","Z"
0.000,0.000,1.815,1.815,131.566,173.780,131.596
0.001,0.166,1.885,1.885,131.701,173.794,131.692
0.002,0.330,1.955,1.955,131.834,173.808,131.787
0.004,0.491,2.023,2.023,131.964,173.822,131.880
0.005,0.646,2.089,2.089,132.090,173.835,131.970
0.006,0.795,2.152,2.152,132.211,173.848,132.056
0.007,0.934,2.211,2.211,132.323,173.861,132.136
0.009,1.062,2.266,2.266,132.428,173.873,132.210
0.010,1.178,2.315,2.315,132.522,173.884,132.277
0.011,1.280,2.359,2.359,132.604,173.895,132.336
0.012,1.365,2.397,2.397,132.673,173.904,132.385
0.014,1.434,2.430,2.430,132.729,173.913,132.424
0.015,1.488,2.457,2.457,132.773,173.922,132.454
0.016,1.528,2.478,2.478,132.806,173.932,132.475
0.017,1.558,2.494,2.494,132.831,173.942,132.487
0.019,1.580,2.505,2.505,132.848,173.955,132.492
0.020,1.599,2.512,2.512,132.859,173.971,132.490
0.021,1.621,2.513,2.513,132.867,173.989,132.481
0.022,1.649,2.511,2.511,132.872,174.012,132.466
0.024,1.683,2.505,2.505,132.875,174.040,132.446
0.025,1.725,2.498,2.498,132.880,174.072,132.421
0.026,1.774,2.489,2.489,132.886,174.111,132.391
0.027,1.829,2.479,2.479,132.892,174.154,132.358
0.029,1.889,2.471,2.471,132.900,174.203,132.323
0.030,1.954,2.464,2.464,132.910,174.256,132.287
0.031,2.023,2.459,2.459,132.920,174.313,132.249
0.032,2.096,2.457,2.457,132.931,174.375,132.213
0.034,2.171,2.457,2.457,132.943,174.441,132.177
0.035,2.249,2.458,2.458,132.956,174.510,132.144
0.036,2.329,2.460,2.460,132.970,174.582,132.115
0.037,2.410,2.463,2.463,132.984,174.658,132.089
0.039,2.492,2.466,2.466,132.999,174.736,132.067
0.040,2.575,2.468,2.468,133.014,174.815,132.051
0.041,2.657,2.468,2.468,133.028,174.895,132.039
0.042,2.738,2.468,2.468,133.040,174.975,132.034
0.043,2.817,2.466,2.466,133.051,175.054,132.034
0.045,2.895,2.464,2.464,133.059,175.131,132.040
0.046,2.970,2.462,2.462,133.064,175.205,132.053
0.047,3.044,2.460,2.460,133.066,175.276,132.072
0.048,3.116,2.458,2.458,133.064,175.343,132.099
0.050,3.187,2.456,2.456,133.058,175.405,132.133
0.051,3.260,2.456,2.456,133.049,175.464,132.174
0.052,3.335,2.457,2.457,133.041,175.523,132.220
0.053,3.415,2.457,2.457,133.034,175.584,132.272
0.055,3.500,2.457,2.457,133.031,175.648,132.327
0.056,3.592,2.454,2.454,133.033,175.718,132.387
0.057,3.691,2.449,2.449,133.042,175.796,132.448
0.058,3.801,2.440,2.440,133.060,175.883,132.512
0.060,3.923,2.426,2.426,133.090,175.982,132.577
0.061,4.060,2.406,2.406,133.133,176.094,132.642
0.062,4.211,2.380,2.380,133.189,176.220,132.707
0.063,4.375,2.348,2.348,133.259,176.355,132.768
0.065,4.548,2.309,2.309,133.342,176.496,132.823
0.066,4.728,2.264,2.264,133.439,176.639,132.871
0.067,4.912,2.214,2.214,133.548,176.782,132.910
0.068,5.098,2.157,2.157,133.670,176.920,132.937
0.070,5.286,2.095,2.095,133.804,177.051,132.949
0.071,5.475,2.027,2.027,133.950,177.171,132.946
0.072,5.666,1.954,1.954,134.109,177.275,132.925
0.073,5.860,1.879,1.879,134.278,177.363,132.884
0.075,6.061,1.803,1.803,134.456,177.432,132.825
0.076,6.266,1.730,1.730,134.640,177.486,132.750
0.077,6.474,1.662,1.662,134.825,177.524,132.663
0.078,6.684,1.602,1.602,135.009,177.550,132.567
0.080,6.891,1.552,1.552,135.188,177.564,132.464
0.081,7.092,1.515,1.515,135.359,177.569,132.358
0.082,7.283,1.493,1.493,135.518,177.564,132.251
0.083,7.461,1.484,1.484,135.661,177.553,132.147
0.084,7.621,1.485,1.485,135.786,177.536,132.048
0.086,7.762,1.495,1.495,135.891,177.515,131.957
0.087,7.885,1.511,1.511,135.978,177.491,131.873
0.088,7.994,1.530,1.530,136.050,177.463,131.796
0.089,8.092,1.550,1.550,136.112,177.434,131.726
0.091,8.182,1.568,1.568,136.167,177.404,131.661
0.092,8.267,1.583,1.583,136.219,177.372,131.602
0.093,8.348,1.594,1.594,136.271,177.341,131.548
0.094,8.429,1.602,1.602,136.326,177.310,131.498
0.096,8.512,1.607,1.607,136.389,177.281,131.452
0.097,8.601,1.612,1.612,136.462,177.254,131.409
0.098,8.698,1.615,1.615,136.547,177.229,131.369
0.099,8.802,1.619,1.619,136.642,177.206,131.334
0.101,8.909,1.625,1.625,136.742,177.184,131.302
0.102,9.019,1.632,1.632,136.846,177.163,131.276
0.103,9.127,1.640,1.640,136.951,177.142,131.256
0.104,9.233,1.649,1.649,137.053,177.121,131.241
0.106,9.333,1.658,1.658,137.151,177.099,131.234
0.107,9.427,1.666,1.666,137.241,177.076,131.234
0.108,9.510,1.672,1.672,137.321,177.051,131.242
0.109,9.584,1.674,1.674,137.388,177.025,131.258
0.111,9.652,1.673,1.673,137.445,176.997,131.282
0.112,9.717,1.667,1.667,137.496,176.970,131.312
0.113,9.782,1.658,1.658,137.546,176.946,131.346
0.114,9.851,1.645,1.645,137.601,176.926,131.383
0.116,9.926,1.633,1.633,137.665,176.913,131.420
0.117,10.012,1.622,1.622,137.743,176.908,131.455
0.118,10.115,1.615,1.615,137.840,176.912,131.488
0.119,10.240,1.613,1.613,137.961,176.929,131.516
0.120,10.395,1.619,1.619,138.112,176.958,131.538
0.122,10.583,1.633,1.633,138.294,177.003,131.552
0.123,10.798,1.657,1.657,138.501,177.060,131.559
0.124,11.033,1.688,1.688,138.727,177.125,131.561
0.125,11.279,1.725,1.725,138.962,177.197,131.557
0.127,11.527,1.765,1.765,139.199,177.271,131.549
0.128,11.770,1.806,1.806,139.430,177.345,131.538
0.129,11.997,1.847,1.847,139.646,177.415,131.525
0.130,12.202,1.884,1.884,139.840,177.479,131.512
0.132,12.374,1.917,1.917,140.003,177.532,131.498
0.133,12.507,1.943,1.943,140.128,177.573,131.486
0.134,12.595,1.964,1.964,140.212,177.599,131.476
0.135,12.647,1.979,1.979,140.261,177.614,131.469
0.137,12.668,1.989,1.989,140.282,177.620,131.467
0.138,12.671,1.995,1.995,140.280,177.620,131.469
0.139,12.690,1.996,1.996,140.263,177.616,131.478
0.140,12.721,1.994,1.994,140.238,177.611,131.494
0.142,12.757,1.989,1.989,140.210,177.608,131.518
0.143,12.797,1.981,1.981,140.188,177.610,131.551
0.144,12.843,1.972,1.972,140.176,177.619,131.594
0.145,12.900,1.961,1.961,140.182,177.638,131.648
0.147,12.975,1.951,1.951,140.208,177.667,131.711
0.148,13.067,1.941,1.941,140.250,177.708,131.782
0.149,13.175,1.933,1.933,140.307,177.758,131.858
0.150,13.295,1.928,1.928,140.377,177.819,131.936
0.152,13.426,1.927,1.927,140.456,177.889,132.013
0.153,13.566,1.929,1.929,140.544,177.969,132.087
0.154,13.712,1.937,1.937,140.638,178.057,132.155
0.155,13.862,1.950,1.950,140.736,178.154,132.214
0.157,14.014,1.969,1.969,140.835,178.259,132.263
0.158,14.169,1.995,1.995,140.934,178.372,132.299
0.159,14.325,2.027,2.027,141.031,178.492,132.321
0.160,14.482,2.066,2.066,141.127,178.617,132.331
0.161,14.642,2.113,2.113,141.221,178.746,132.328
0.163,14.802,2.167,2.167,141.312,178.877,132.315
0.164,14.963,2.228,2.228,141.400,179.009,132.290
0.165,15.124,2.293,2.293,141.486,179.141,132.255
0.166,15.284,2.360,2.360,141.567,179.271,132.211
0.168,15.442,2.427,2.427,141.644,179.398,132.158
0.169,15.597,2.492,2.492,141.717,179.521,132.096
0.170,15.749,2.552,2.552,141.786,179.638,132.028
0.171,15.897,2.606,2.606,141.849,179.749,131.954
0.173,16.040,2.651,2.651,141.907,179.854,131.877
0.174,16.176,2.689,2.689,141.961,179.953,131.799
0.175,16.306,2.719,2.719,142.009,180.046,131.722
0.176,16.427,2.743,2.743,142.052,180.132,131.649
0.178,16.539,2.763,2.763,142.090,180.212,131.581
0.179,16.639,2.779,2.779,142.123,180.285,131.521
0.180,16.726,2.792,2.792,142.150,180.351,131.470
0.181,16.800,2.805,2.805,142.172,180.410,131.432
0.183,16.861,2.817,2.817,142.188,180.463,131.406
0.184,16.913,2.831,2.831,142.201,180.511,131.390
0.185,16.960,2.845,2.845,142.210,180.556,131.382
0.186,17.004,2.860,2.860,142.217,180.600,131.381
0.188,17.048,2.877,2.877,142.222,180.643,131.384
0.189,17.093,2.895,2.895,142.226,180.688,131.390
0.190,17.142,2.915,2.915,142.231,180.736,131.397
0.191,17.196,2.938,2.938,142.236,180.789,131.402
0.193,17.255,2.963,2.963,142.244,180.848,131.405
0.194,17.322,2.990,2.990,142.254,180.915,131.402
0.195,17.395,3.018,3.018,142.265,180.986,131.394
0.196,17.469,3.043,3.043,142.275,181.057,131.378
0.198,17.542,3.066,3.066,142.281,181.126,131.353
0.199,17.611,3.083,3.083,142.282,181.186,131.319
0.200,17.677,3.094,3.094,142.275,181.234,131.274
0.201,17.745,3.097,3.097,142.257,181.266,131.217
0.202,17.822,3.090,3.090,142.227,181.278,131.148
0.204,17.918,3.073,3.073,142.182,181.266,131.064
0.205,18.042,3.047,3.047,142.120,181.225,130.965
0.206,18.199,3.014,3.014,142.040,181.154,130.850
0.207,18.385,2.975,2.975,141.946,181.056,130.722
0.209,18.595,2.933,2.933,141.842,180.938,130.583
0.210,18.821,2.888,2.888,141.733,180.805,130.436
0.211,19.057,2.842,2.842,141.622,180.662,130.285
0.212,19.296,2.798,2.798,141.514,180.515,130.130
0.214,19.531,2.755,2.755,141.414,180.369,129.976
0.215,19.754,2.714,2.714,141.326,180.230,129.825
0.216,19.960,2.676,2.676,141.254,180.103,129.680
0.217,20.143,2.639,2.639,141.202,179.994,129.543
0.219,20.301,2.603,2.603,141.172,179.904,129.415
0.220,20.441,2.569,2.569,141.161,179.832,129.297
0.221,20.566,2.536,2.536,141.165,179.775,129.186
0.222,20.680,2.505,2.505,141.182,179.730,129.082
0.224,20.786,2.475,2.475,141.210,179.696,128.985
0.225,20.888,2.445,2.445,141.244,179.668,128.894
0.226,20.985,2.418,2.418,141.282,179.646,128.807
0.227,21.078,2.392,2.392,141.321,179.626,128.725
0.229,21.168,2.368,2.368,141.358,179.606,128.645
0.230,21.254,2.346,2.346,141.391,179.584,128.569
0.231,21.337,2.326,2.326,141.418,179.559,128.495
0.232,21.415,2.309,2.309,141.441,179.533,128.424
0.234,21.490,2.294,2.294,141.459,179.506,128.358
0.235,21.559,2.282,2.282,141.473,179.480,128.296
0.236,21.622,2.273,2.273,141.485,179.455,128.239
0.237,21.679,2.265,2.265,141.493,179.432,128.187
0.239,21.728,2.260,2.260,141.500,179.412,128.143
0.240,21.770,2.256,2.256,141.505,179.396,128.105
0.241,21.802,2.254,2.254,141.509,179.385,128.075
0.242,21.825,2.254,2.254,141.513,179.379,128.052
0.243,21.842,2.254,2.254,141.516,179.377,128.036
0.245,21.853,2.256,2.256,141.519,179.378,128.026
0.246,21.861,2.256,2.256,141.522,179.379,128.018
0.247,21.867,2.257,2.257,141.525,179.379,128.013
0.248,21.874,2.255,2.255,141.528,179.376,128.008
0.250,21.885,2.251,2.251,141.532,179.368,128.002
0.251,21.902,2.243,2.243,141.536,179.353,127.993
0.252,21.930,2.232,2.232,141.540,179.330,127.979
0.253,21.968,2.216,2.216,141.546,179.296,127.960
0.255,22.021,2.197,2.197,141.552,179.251,127.933
0.256,22.088,2.175,2.175,141.562,179.195,127.898
0.257,22.171,2.153,2.153,141.575,179.127,127.852
0.258,22.272,2.132,2.132,141.595,179.047,127.794
0.260,22.391,2.113,2.113,141.621,178.955,127.724
0.261,22.530,2.099,2.099,141.656,178.851,127.639
0.262,22.690,2.090,2.090,141.700,178.735,127.537
0.263,22.874,2.089,2.089,141.757,178.606,127.419
0.265,23.082,2.096,2.096,141.826,178.465,127.281
0.266,23.317,2.110,2.110,141.909,178.312,127.124
0.267,23.575,2.130,2.130,142.004,178.148,126.949
0.268,23.849,2.156,2.156,142.110,177.977,126.763
0.270,24.131,2.188,2.188,142.222,177.803,126.572
0.271,24.414,2.223,2.223,142.337,177.630,126.380
0.272,24.691,2.262,2.262,142.453,177.461,126.194
0.273,24.954,2.304,2.304,142.565,177.300,126.019
0.275,25.196,2.349,2.349,142.672,177.151,125.861
0.276,25.409,2.395,2.395,142.769,177.016,125.726
0.277,25.588,2.443,2.443,142.854,176.900,125.620
0.278,25.726,2.490,2.490,142.924,176.806,125.547
0.280,25.829,2.537,2.537,142.979,176.731,125.503
0.281,25.905,2.583,2.583,143.021,176.672,125.482
0.282,25.961,2.628,2.628,143.050,176.624,125.478
0.283,26.005,2.670,2.670,143.068,176.585,125.487
0.284,26.043,2.709,2.709,143.075,176.550,125.501
0.286,26.080,2.745,2.745,143.073,176.516,125.514
0.287,26.119,2.778,2.778,143.063,176.478,125.522
0.288,26.167,2.808,2.808,143.046,176.434,125.518
0.289,26.230,2.833,2.833,143.024,176.380,125.496
0.291,26.313,2.855,2.855,142.996,176.314,125.453
0.292,26.414,2.874,2.874,142.965,176.239,125.394
0.293,26.526,2.888,2.888,142.932,176.158,125.323
0.294,26.646,2.898,2.898,142.897,176.075,125.244
0.296,26.766,2.904,2.904,142.863,175.994,125.162
0.297,26.881,2.907,2.907,142.831,175.918,125.082
0.298,26.986,2.907,2.907,142.801,175.850,125.008
0.299,27.075,2.904,2.904,142.774,175.794,124.945
0.301,27.141,2.900,2.900,142.753,175.753,124.897
0.302,27.179,2.894,2.894,142.739,175.731,124.870
0.303,27.192,2.887,2.887,142.730,175.726,124.861
0.304,27.202,2.879,2.879,142.726,175.734,124.866
0.306,27.222,2.871,2.871,142.726,175.748,124.880
0.307,27.245,2.865,2.865,142.727,175.764,124.897
0.308,27.264,2.862,2.862,142.730,175.777,124.911
0.309,27.271,2.862,2.862,142.731,175.780,124.917
0.311,27.285,2.867,2.867,142.731,175.768,124.909
0.312,27.326,2.878,2.878,142.727,175.737,124.883
0.313,27.403,2.896,2.896,142.718,175.680,124.832
0.314,27.521,2.921,2.921,142.703,175.593,124.752
0.316,27.678,2.953,2.953,142.683,175.480,124.646
0.317,27.864,2.989,2.989,142.657,175.347,124.518
0.318,28.072,3.028,3.028,142.628,175.199,124.375
0.319,28.294,3.068,3.068,142.596,175.042,124.221
0.320,28.521,3.106,3.106,142.562,174.883,124.062
0.322,28.747,3.141,3.141,142.527,174.727,123.903
0.323,28.962,3.171,3.171,142.492,174.582,123.749
0.324,29.158,3.195,3.195,142.458,174.451,123.606
0.325,29.329,3.212,3.212,142.425,174.343,123.478
0.327,29.469,3.223,3.223,142.395,174.260,123.370
0.328,29.581,3.230,3.230,142.368,174.200,123.279
0.329,29.669,3.234,3.234,142.344,174.159,123.205
0.330,29.737,3.236,3.236,142.323,174.134,123.146
0.332,29.789,3.236,3.236,142.305,174.121,123.098
0.333,29.829,3.236,3.236,142.292,174.118,123.060
0.334,29.860,3.238,3.238,142.282,174.120,123.031
0.335,29.884,3.240,3.240,142.277,174.123,123.008
0.337,29.903,3.243,3.243,142.276,174.125,122.989
0.338,29.920,3.245,3.245,142.280,174.122,122.972
0.339,29.941,3.247,3.247,142.288,174.113,122.956
0.340,29.968,3.248,3.248,142.302,174.098,122.939
0.342,30.001,3.247,3.247,142.320,174.078,122.919
0.343,30.042,3.243,3.243,142.344,174.055,122.894
0.344,30.091,3.237,3.237,142.372,174.030,122.864
0.345,30.147,3.227,3.227,142.405,174.004,122.827
0.347,30.213,3.215,3.215,142.444,173.978,122.780
0.348,30.289,3.199,3.199,142.487,173.953,122.724
0.349,30.376,3.181,3.181,142.536,173.929,122.655
0.350,30.476,3.161,3.161,142.589,173.910,122.572
0.352,30.588,3.138,3.138,142.647,173.893,122.479
0.353,30.707,3.113,3.113,142.707,173.879,122.376
0.354,30.832,3.087,3.087,142.769,173.867,122.268
0.355,30.959,3.058,3.058,142.830,173.857,122.158
0.357,31.084,3.029,3.029,142.889,173.847,122.048
0.358,31.204,3.000,3.000,142.946,173.839,121.942
0.359,31.317,2.972,2.972,142.998,173.830,121.843
0.360,31.417,2.946,2.946,143.044,173.821,121.754
0.361,31.503,2.923,2.923,143.082,173.812,121.678
0.363,31.572,2.904,2.904,143.113,173.800,121.617
0.364,31.627,2.888,2.888,143.136,173.788,121.568
0.365,31.673,2.878,2.878,143.153,173.774,121.528
0.366,31.712,2.870,2.870,143.165,173.760,121.493
0.368,31.750,2.865,2.865,143.174,173.745,121.460
0.369,31.790,2.860,2.860,143.181,173.730,121.424
0.370,31.835,2.855,2.855,143.187,173.715,121.382
0.371,31.889,2.847,2.847,143.194,173.699,121.330
0.373,31.957,2.836,2.836,143.203,173.684,121.265
0.374,32.041,2.819,2.819,143.215,173.669,121.183
0.375,32.143,2.797,2.797,143.231,173.654,121.083
0.376,32.261,2.770,2.770,143.250,173.640,120.967
0.378,32.393,2.739,2.739,143.271,173.626,120.838
0.379,32.536,2.704,2.704,143.294,173.612,120.698
0.380,32.687,2.667,2.667,143.318,173.597,120.549
0.381,32.844,2.628,2.628,143.341,173.581,120.395
0.383,33.004,2.589,2.589,143.364,173.565,120.237
0.384,33.164,2.549,2.549,143.384,173.548,120.079
0.385,33.323,2.511,2.511,143.402,173.529,119.923
0.386,33.476,2.475,2.475,143.417,173.509,119.771
0.388,33.624,2.441,2.441,143.430,173.488,119.626
0.389,33.763,2.411,2.411,143.442,173.469,119.489
0.390,33.892,2.386,2.386,143.457,173.453,119.361
0.391,34.011,2.366,2.366,143.477,173.441,119.245
0.393,34.117,2.352,2.352,143.503,173.435,119.142
0.394,34.213,2.346,2.346,143.539,173.437,119.053
0.395,34.300,2.347,2.347,143.586,173.449,118.981
0.396,34.385,2.355,2.355,143.647,173.471,118.927
0.398,34.477,2.367,2.367,143.724,173.507,118.892
0.399,34.585,2.382,2.382,143.819,173.557,118.877
0.400,34.710,2.397,2.397,143.928,173.619,118.881
0.401,34.852,2.411,2.411,144.049,173.690,118.901
0.402,35.005,2.421,2.421,144.177,173.767,118.933
0.404,35.165,2.426,2.426,144.309,173.849,118.975
0.405,35.328,2.424,2.424,144.440,173.931,119.023
0.406,35.488,2.415,2.415,144.568,174.012,119.076
0.407,35.639,2.402,2.402,144.687,174.088,119.130
0.409,35.778,2.384,2.384,144.795,174.157,119.182
0.410,35.897,2.365,2.365,144.888,174.216,119.229
0.411,35.995,2.345,2.345,144.964,174.263,119.269
0.412,36.075,2.326,2.326,145.024,174.301,119.304
0.414,36.138,2.309,2.309,145.072,174.330,119.333
0.415,36.188,2.296,2.296,145.109,174.353,119.358
0.416,36.228,2.288,2.288,145.138,174.372,119.379
0.417,36.262,2.283,2.283,145.162,174.388,119.397
0.419,36.292,2.280,2.280,145.182,174.403,119.413
0.420,36.321,2.279,2.279,145.201,174.420,119.428
0.421,36.353,2.280,2.280,145.222,174.439,119.442
0.422,36.389,2.280,2.280,145.246,174.462,119.456
0.424,36.433,2.280,2.280,145.275,174.491,119.471
0.425,36.481,2.279,2.279,145.308,174.523,119.486
0.426,36.533,2.276,2.276,145.343,174.558,119.501
0.427,36.587,2.272,2.272,145.380,174.594,119.517
0.429,36.642,2.268,2.268,145.417,174.631,119.533
0.430,36.697,2.263,2.263,145.455,174.667,119.550
0.431,36.750,2.258,2.258,145.492,174.702,119.566
0.432,36.800,2.254,2.254,145.527,174.734,119.583
0.434,36.846,2.250,2.250,145.559,174.762,119.599
0.435,36.887,2.248,2.248,145.587,174.786,119.616
0.436,36.922,2.246,2.246,145.612,174.805,119.632
0.437,36.951,2.246,2.246,145.634,174.819,119.646
0.439,36.975,2.245,2.245,145.652,174.829,119.657
0.440,36.993,2.243,2.243,145.667,174.836,119.664
0.441,37.006,2.239,2.239,145.679,174.840,119.666
0.442,37.016,2.232,2.232,145.689,174.841,119.663
0.443,37.028,2.223,2.223,145.696,174.839,119.653
0.445,37.047,2.209,2.209,145.701,174.836,119.635
0.446,37.074,2.191,2.191,145.704,174.831,119.609
0.447,37.109,2.170,2.170,145.706,174.826,119.574
0.448,37.150,2.147,2.147,145.713,174.828,119.534
0.450,37.196,2.124,2.124,145.730,174.842,119.493
0.451,37.258,2.102,2.102,145.763,174.877,119.455
0.452,37.345,2.081,2.081,145.818,174.938,119.424
0.453,37.472,2.064,2.064,145.900,175.032,119.403
0.455,37.649,2.051,2.051,146.016,175.165,119.397
0.456,37.887,2.045,2.045,146.170,175.346,119.410
0.457,38.195,2.045,2.045,146.369,175.579,119.444
0.458,38.585,2.053,2.053,146.618,175.872,119.506
0.460,39.051,2.070,2.070,146.914,176.222,119.592
0.461,39.575,2.097,2.098,147.245,176.614,119.700
0.462,40.138,2.136,2.136,147.600,177.034,119.821
0.463,40.719,2.187,2.187,147.964,177.467,119.952
0.465,41.298,2.251,2.251,148.327,177.898,120.085
0.466,41.855,2.329,2.329,148.674,178.313,120.216
0.467,42.370,2.419,2.419,148.995,178.697,120.338
0.468,42.823,2.516,2.516,149.276,179.036,120.447
0.470,43.194,2.619,2.619,149.504,179.315,120.535
0.471,43.466,2.724,2.724,149.670,179.521,120.599
0.472,43.641,2.827,2.827,149.774,179.656,120.639
0.473,43.734,2.925,2.925,149.827,179.729,120.658
0.475,43.759,3.016,3.016,149.838,179.752,120.661
0.476,43.789,3.097,3.097,149.817,179.734,120.652
0.477,43.858,3.166,3.166,149.772,179.684,120.634
0.478,43.953,3.225,3.225,149.714,179.613,120.611
0.480,44.059,3.274,3.274,149.651,179.531,120.587
0.481,44.163,3.315,3.315,149.593,179.447,120.567
0.482,44.250,3.347,3.347,149.550,179.372,120.554
0.483,44.312,3.372,3.372,149.528,179.314,120.549
0.484,44.350,3.390,3.390,149.525,179.277,120.551
0.486,44.369,3.402,3.402,149.535,179.261,120.555
0.487,44.389,3.409,3.409,149.553,179.269,120.556
0.488,44.431,3.412,3.412,149.576,179.304,120.550
0.489,44.498,3.412,3.412,149.596,179.366,120.533
0.491,44.597,3.412,3.412,149.611,179.458,120.501
0.492,44.732,3.411,3.411,149.615,179.582,120.448
0.493,44.908,3.412,3.411,149.603,179.740,120.371
0.494,45.130,3.415,3.415,149.570,179.933,120.266
0.496,45.399,3.422,3.422,149.515,180.160,120.132
0.497,45.704,3.432,3.432,149.441,180.411,119.976
0.498,46.035,3.445,3.446,149.355,180.679,119.803
0.499,46.379,3.460,3.460,149.258,180.955,119.621
0.501,46.725,3.475,3.476,149.157,181.229,119.435
0.502,47.062,3.490,3.490,149.056,181.492,119.252
0.503,47.377,3.502,3.503,148.958,181.737,119.079
0.504,47.659,3.512,3.512,148.869,181.954,118.922
0.506,47.897,3.518,3.518,148.792,182.134,118.787
0.507,48.079,3.519,3.519,148.732,182.270,118.681
