"T","Distance","Radius","FreeRadius","X","Y","Z"
0.000,0.000,2.114,2.114,146.349,172.085,127.761
0.002,0.100,2.104,2.104,146.360,172.148,127.838
0.003,0.200,2.095,2.095,146.371,172.212,127.913
0.005,0.298,2.086,2.086,146.379,172.280,127.984
0.007,0.396,2.078,2.078,146.383,172.353,128.049
0.008,0.493,2.070,2.070,146.382,172.433,128.105
0.010,0.593,2.064,2.064,146.375,172.521,128.151
0.011,0.698,2.059,2.059,146.360,172.620,128.184
0.013,0.812,2.055,2.055,146.336,172.730,128.202
0.015,0.941,2.056,2.056,146.303,172.854,128.204
0.016,1.087,2.060,2.060,146.258,172.992,128.188
0.018,1.248,2.071,2.071,146.205,173.141,128.157
0.020,1.420,2.088,2.088,146.145,173.297,128.114
0.021,1.599,2.113,2.113,146.080,173.456,128.064
0.023,1.778,2.144,2.144,146.013,173.612,128.011
0.025,1.951,2.178,2.178,145.946,173.763,127.956
0.026,2.115,2.214,2.214,145.881,173.904,127.906
0.028,2.262,2.246,2.246,145.820,174.031,127.863
0.030,2.387,2.274,2.274,145.765,174.139,127.830
0.031,2.487,2.293,2.293,145.718,174.226,127.811
0.033,2.565,2.304,2.304,145.679,174.293,127.804
0.034,2.625,2.307,2.307,145.647,174.343,127.805
0.036,2.670,2.306,2.306,145.621,174.379,127.813
0.038,2.704,2.301,2.301,145.599,174.403,127.825
0.039,2.730,2.295,2.295,145.582,174.418,127.837
0.041,2.750,2.289,2.289,145.568,174.426,127.848
0.043,2.764,2.284,2.284,145.557,174.430,127.855
0.044,2.775,2.281,2.281,145.547,174.434,127.855
0.046,2.788,2.280,2.280,145.538,174.438,127.846
0.048,2.807,2.280,2.280,145.529,174.443,127.830
0.049,2.832,2.282,2.282,145.521,174.449,127.807
0.051,2.861,2.286,2.286,145.513,174.456,127.780
0.052,2.894,2.292,2.292,145.504,174.464,127.749
0.054,2.929,2.298,2.298,145.495,174.474,127.717
0.056,2.964,2.303,2.303,145.484,174.484,127.685
0.057,2.998,2.307,2.307,145.473,174.494,127.655
0.059,3.030,2.308,2.308,145.460,174.506,127.628
0.061,3.060,2.306,2.306,145.446,174.518,127.604
0.062,3.086,2.298,2.298,145.432,174.530,127.586
0.064,3.108,2.289,2.289,145.419,174.542,127.573
0.066,3.124,2.281,2.281,145.408,174.551,127.566
0.067,3.134,2.275,2.275,145.402,174.559,127.564
0.069,3.141,2.276,2.276,145.401,174.564,127.569
0.070,3.154,2.287,2.287,145.407,174.566,127.580
0.072,3.178,2.307,2.307,145.421,174.563,127.599
0.074,3.214,2.334,2.334,145.444,174.555,127.625
0.075,3.261,2.361,2.361,145.477,174.543,127.657
0.077,3.311,2.379,2.379,145.512,174.530,127.690
0.079,3.353,2.384,2.384,145.542,174.521,127.718
0.080,3.378,2.366,2.366,145.560,174.520,127.735
0.082,3.389,2.322,2.322,145.558,174.530,127.734
0.084,3.435,2.257,2.257,145.529,174.558,127.710
0.085,3.531,2.183,2.183,145.465,174.606,127.656
0.087,3.687,2.113,2.113,145.359,174.678,127.567
0.089,3.914,2.061,2.061,145.205,174.780,127.437
0.090,4.214,2.040,2.040,144.999,174.913,127.263
0.092,4.572,2.060,2.060,144.753,175.070,127.055
0.093,4.970,2.123,2.123,144.480,175.244,126.825
0.095,5.388,2.214,2.214,144.193,175.430,126.583
0.097,5.810,2.322,2.322,143.905,175.618,126.341
0.098,6.216,2.434,2.434,143.628,175.804,126.108
0.100,6.588,2.536,2.536,143.376,175.979,125.896
0.102,6.909,2.617,2.617,143.162,176.137,125.717
0.103,7.161,2.671,2.671,142.999,176.270,125.581
0.105,7.334,2.704,2.704,142.893,176.375,125.492
0.107,7.441,2.724,2.724,142.836,176.453,125.445
0.108,7.498,2.736,2.736,142.819,176.505,125.429
0.110,7.530,2.747,2.747,142.833,176.533,125.436
0.111,7.571,2.765,2.765,142.869,176.538,125.457
0.113,7.627,2.792,2.792,142.916,176.524,125.483
0.115,7.690,2.826,2.826,142.965,176.491,125.504
0.116,7.755,2.862,2.862,143.008,176.442,125.511
0.118,7.826,2.898,2.898,143.033,176.377,125.497
0.120,7.913,2.928,2.928,143.037,176.301,125.456
0.121,8.019,2.949,2.949,143.023,176.216,125.393
0.123,8.141,2.959,2.959,142.993,176.127,125.315
0.125,8.272,2.959,2.959,142.953,176.038,125.227
0.126,8.405,2.950,2.950,142.907,175.953,125.137
0.128,8.530,2.936,2.936,142.858,175.876,125.051
0.130,8.641,2.919,2.919,142.811,175.811,124.974
0.131,8.730,2.901,2.901,142.770,175.763,124.913
0.133,8.787,2.883,2.883,142.738,175.735,124.874
0.134,8.812,2.868,2.868,142.719,175.727,124.859
0.136,8.825,2.856,2.856,142.709,175.735,124.863
0.138,8.846,2.847,2.847,142.707,175.751,124.877
0.139,8.871,2.843,2.843,142.709,175.768,124.895
0.141,8.891,2.845,2.845,142.715,175.780,124.909
0.143,8.898,2.853,2.853,142.720,175.780,124.914
0.144,8.921,2.867,2.867,142.723,175.761,124.902
0.146,8.978,2.886,2.886,142.721,175.717,124.865
0.148,9.081,2.910,2.910,142.713,175.641,124.797
0.149,9.231,2.938,2.938,142.696,175.532,124.695
0.151,9.421,2.969,2.969,142.671,175.395,124.566
0.152,9.639,3.003,3.003,142.642,175.239,124.416
0.154,9.876,3.039,3.039,142.607,175.071,124.252
0.156,10.122,3.075,3.075,142.570,174.900,124.080
0.157,10.366,3.110,3.110,142.531,174.731,123.908
0.159,10.598,3.142,3.142,142.492,174.574,123.741
0.161,10.809,3.170,3.170,142.454,174.435,123.587
0.162,10.988,3.193,3.193,142.418,174.323,123.453
0.164,11.131,3.209,3.209,142.386,174.240,123.341
0.166,11.243,3.220,3.220,142.357,174.182,123.249
0.167,11.329,3.228,3.228,142.332,174.146,123.176
0.169,11.393,3.233,3.233,142.312,174.126,123.118
0.170,11.442,3.237,3.237,142.295,174.118,123.073
0.172,11.478,3.240,3.240,142.284,174.119,123.039
0.174,11.505,3.244,3.244,142.277,174.122,123.012
0.175,11.527,3.249,3.249,142.275,174.125,122.991
0.177,11.545,3.253,3.253,142.279,174.123,122.973
0.179,11.568,3.256,3.256,142.289,174.113,122.956
0.180,11.597,3.258,3.258,142.304,174.096,122.937
0.182,11.634,3.259,3.259,142.325,174.074,122.915
0.184,11.680,3.258,3.258,142.352,174.049,122.887
0.185,11.735,3.254,3.254,142.384,174.022,122.852
0.187,11.800,3.247,3.247,142.422,173.993,122.808
0.189,11.876,3.236,3.236,142.466,173.965,122.753
0.190,11.965,3.222,3.222,142.516,173.939,122.684
0.192,12.068,3.203,3.203,142.572,173.915,122.600
0.193,12.186,3.178,3.178,142.632,173.896,122.501
0.195,12.314,3.150,3.150,142.696,173.880,122.392
0.197,12.449,3.119,3.119,142.762,173.866,122.275
0.198,12.586,3.086,3.086,142.828,173.855,122.155
0.200,12.721,3.053,3.053,142.892,173.845,122.037
0.202,12.850,3.020,3.020,142.953,173.836,121.923
0.203,12.969,2.989,2.989,143.008,173.827,121.818
0.205,13.073,2.960,2.960,143.057,173.818,121.727
0.207,13.158,2.935,2.935,143.096,173.808,121.652
0.208,13.225,2.912,2.912,143.127,173.796,121.594
0.210,13.277,2.894,2.894,143.150,173.784,121.549
0.211,13.321,2.879,2.879,143.167,173.771,121.511
0.213,13.360,2.869,2.869,143.178,173.756,121.476
0.215,13.402,2.862,2.862,143.187,173.740,121.438
0.216,13.450,2.855,2.855,143.193,173.723,121.394
0.218,13.510,2.847,2.847,143.199,173.705,121.337
0.220,13.586,2.834,2.834,143.206,173.685,121.263
0.221,13.684,2.815,2.815,143.215,173.665,121.168
0.223,13.805,2.787,2.787,143.227,173.643,121.050
0.225,13.943,2.750,2.750,143.242,173.622,120.914
0.226,14.096,2.707,2.707,143.260,173.601,120.764
0.228,14.259,2.661,2.661,143.281,173.581,120.603
0.230,14.428,2.615,2.615,143.304,173.562,120.437
0.231,14.598,2.573,2.573,143.331,173.547,120.270
0.233,14.766,2.536,2.536,143.359,173.534,120.105
0.234,14.927,2.508,2.508,143.391,173.525,119.947
0.236,15.078,2.487,2.487,143.424,173.520,119.800
0.238,15.217,2.473,2.473,143.460,173.520,119.666
0.239,15.345,2.466,2.466,143.497,173.522,119.543
0.241,15.465,2.464,2.464,143.535,173.526,119.429
0.243,15.578,2.467,2.467,143.573,173.529,119.323
0.244,15.686,2.475,2.475,143.611,173.532,119.222
0.246,15.789,2.485,2.485,143.647,173.531,119.125
0.248,15.890,2.496,2.496,143.682,173.527,119.031
0.249,15.989,2.506,2.506,143.714,173.517,118.937
0.251,16.090,2.513,2.513,143.744,173.501,118.843
0.252,16.193,2.516,2.516,143.771,173.477,118.747
0.254,16.296,2.513,2.513,143.796,173.446,118.651
0.256,16.400,2.505,2.505,143.821,173.409,118.557
0.257,16.504,2.496,2.496,143.847,173.365,118.467
0.259,16.607,2.487,2.487,143.875,173.315,118.381
0.261,16.709,2.480,2.480,143.906,173.259,118.302
0.262,16.810,2.478,2.478,143.942,173.197,118.230
0.264,16.910,2.481,2.481,143.983,173.131,118.168
0.266,17.010,2.489,2.489,144.031,173.059,118.117
0.267,17.112,2.499,2.499,144.084,172.983,118.074
0.269,17.217,2.507,2.507,144.139,172.904,118.033
0.270,17.324,2.510,2.510,144.192,172.822,117.988
0.272,17.435,2.506,2.506,144.241,172.739,117.933
0.274,17.552,2.491,2.491,144.280,172.656,117.861
0.275,17.680,2.468,2.468,144.307,172.574,117.766
0.277,17.828,2.444,2.444,144.319,172.494,117.642
0.279,18.005,2.425,2.425,144.311,172.417,117.483
0.280,18.221,2.420,2.420,144.281,172.343,117.283
0.282,18.474,2.433,2.433,144.229,172.275,117.045
0.284,18.754,2.472,2.472,144.160,172.212,116.780
0.285,19.052,2.537,2.537,144.080,172.155,116.499
0.287,19.355,2.620,2.620,143.992,172.105,116.214
0.289,19.651,2.714,2.714,143.902,172.063,115.934
0.290,19.929,2.810,2.810,143.815,172.029,115.673
0.292,20.177,2.902,2.902,143.735,172.003,115.440
0.293,20.383,2.980,2.980,143.667,171.987,115.246
0.295,20.535,3.042,3.042,143.616,171.981,115.103
0.297,20.635,3.088,3.088,143.582,171.985,115.009
0.298,20.692,3.120,3.120,143.561,171.995,114.956
0.300,20.722,3.140,3.140,143.548,172.011,114.935
0.302,20.743,3.148,3.148,143.539,172.030,114.937
0.303,20.770,3.148,3.148,143.531,172.050,114.953
0.305,20.800,3.141,3.141,143.518,172.070,114.973
0.307,20.830,3.129,3.129,143.498,172.087,114.988
0.308,20.865,3.115,3.115,143.466,172.099,114.989
0.310,20.918,3.101,3.101,143.418,172.104,114.969
0.311,20.993,3.090,3.090,143.355,172.101,114.926
0.313,21.087,3.083,3.083,143.283,172.088,114.868
0.315,21.193,3.083,3.083,143.206,172.065,114.800
0.316,21.303,3.088,3.088,143.129,172.029,114.729
0.318,21.412,3.092,3.092,143.058,171.980,114.662
0.320,21.518,3.092,3.092,142.998,171.915,114.604
0.321,21.618,3.086,3.086,142.953,171.835,114.564
0.323,21.721,3.068,3.068,142.929,171.737,114.546
0.325,21.838,3.036,3.036,142.930,171.621,114.557
0.326,21.979,2.993,2.993,142.955,171.487,114.595
0.328,22.143,2.941,2.941,142.999,171.340,114.655
0.330,22.326,2.884,2.884,143.056,171.183,114.730
0.331,22.522,2.827,2.827,143.121,171.019,114.813
0.333,22.722,2.773,2.773,143.189,170.852,114.900
0.334,22.919,2.727,2.727,143.254,170.685,114.982
0.336,23.107,2.688,2.688,143.312,170.522,115.055
0.338,23.279,2.657,2.657,143.356,170.365,115.112
0.339,23.432,2.634,2.634,143.382,170.219,115.148
0.341,23.569,2.618,2.618,143.390,170.083,115.164
0.343,23.697,2.610,2.610,143.385,169.955,115.170
0.344,23.820,2.607,2.607,143.370,169.833,115.172
0.346,23.940,2.610,2.610,143.348,169.716,115.179
0.348,24.059,2.613,2.613,143.324,169.600,115.198
0.349,24.183,2.614,2.614,143.302,169.485,115.239
0.351,24.320,2.608,2.608,143.286,169.368,115.308
0.352,24.481,2.593,2.593,143.279,169.247,115.413
0.354,24.676,2.563,2.563,143.284,169.120,115.561
0.356,24.906,2.521,2.521,143.303,168.989,115.749
0.357,25.161,2.469,2.469,143.331,168.855,115.964
0.359,25.431,2.413,2.413,143.367,168.720,116.195
0.361,25.706,2.358,2.358,143.408,168.588,116.432
0.362,25.974,2.310,2.310,143.452,168.460,116.664
0.364,26.224,2.273,2.273,143.496,168.338,116.879
0.366,26.446,2.250,2.250,143.538,168.225,117.065
0.367,26.630,2.241,2.241,143.575,168.124,117.213
0.369,26.765,2.242,2.242,143.604,168.036,117.312
0.370,26.860,2.252,2.252,143.627,167.960,117.364
0.372,26.929,2.267,2.267,143.645,167.895,117.377
0.374,26.990,2.286,2.286,143.659,167.838,117.360
0.375,27.055,2.307,2.307,143.672,167.789,117.320
0.377,27.127,2.327,2.327,143.684,167.743,117.265
0.379,27.202,2.346,2.346,143.698,167.701,117.204
0.380,27.276,2.362,2.362,143.714,167.659,117.145
0.382,27.345,2.374,2.374,143.736,167.616,117.096
0.384,27.408,2.381,2.381,143.763,167.569,117.065
0.385,27.470,2.381,2.381,143.798,167.519,117.051
0.387,27.539,2.375,2.375,143.840,167.465,117.051
0.389,27.617,2.363,2.363,143.891,167.406,117.061
0.390,27.705,2.346,2.346,143.950,167.344,117.079
0.392,27.803,2.324,2.324,144.018,167.277,117.100
0.393,27.911,2.297,2.297,144.096,167.205,117.121
0.395,28.028,2.267,2.267,144.184,167.129,117.139
0.397,28.156,2.235,2.235,144.283,167.049,117.150
0.398,28.295,2.203,2.203,144.392,166.964,117.151
0.400,28.441,2.175,2.175,144.508,166.876,117.143
0.402,28.589,2.152,2.152,144.626,166.787,117.127
0.403,28.734,2.138,2.138,144.741,166.701,117.107
0.405,28.870,2.134,2.134,144.847,166.619,117.085
0.407,28.991,2.139,2.139,144.940,166.545,117.062
0.408,29.092,2.152,2.152,145.014,166.480,117.041
0.410,29.166,2.168,2.168,145.063,166.427,117.025
0.411,29.210,2.185,2.185,145.083,166.388,117.015
0.413,29.236,2.199,2.199,145.070,166.366,117.013
0.415,29.279,2.207,2.207,145.029,166.354,117.020
0.416,29.341,2.208,2.208,144.970,166.345,117.035
0.418,29.414,2.204,2.204,144.902,166.331,117.058
0.420,29.492,2.197,2.197,144.836,166.303,117.088
0.421,29.576,2.191,2.191,144.779,166.253,117.125
0.423,29.673,2.188,2.188,144.743,166.174,117.168
0.425,29.800,2.189,2.189,144.736,166.057,117.216
0.426,29.975,2.198,2.198,144.768,165.893,117.270
0.428,30.212,2.216,2.216,144.847,165.678,117.329
0.430,30.504,2.246,2.246,144.968,165.419,117.391
0.431,30.839,2.289,2.289,145.120,165.128,117.455
0.433,31.201,2.348,2.348,145.296,164.819,117.521
0.434,31.573,2.424,2.424,145.486,164.505,117.588
0.436,31.942,2.518,2.518,145.679,164.198,117.654
0.438,32.290,2.624,2.624,145.866,163.912,117.719
0.439,32.602,2.733,2.733,146.039,163.659,117.780
0.441,32.862,2.838,2.838,146.187,163.453,117.838
0.443,33.058,2.931,2.931,146.302,163.304,117.891
0.444,33.194,3.005,3.005,146.385,163.207,117.939
0.446,33.282,3.052,3.052,146.440,163.153,117.982
0.448,33.335,3.077,3.077,146.469,163.132,118.020
0.449,33.368,3.084,3.084,146.476,163.134,118.052
0.451,33.401,3.080,3.080,146.464,163.149,118.079
0.452,33.440,3.071,3.071,146.438,163.169,118.100
0.454,33.484,3.063,3.063,146.399,163.182,118.116
0.456,33.532,3.061,3.061,146.352,163.179,118.126
0.457,33.591,3.066,3.066,146.300,163.153,118.131
0.459,33.667,3.074,3.074,146.242,163.103,118.132
0.461,33.761,3.082,3.082,146.179,163.033,118.133
0.462,33.872,3.088,3.088,146.111,162.945,118.136
0.464,33.997,3.088,3.088,146.037,162.844,118.143
0.466,34.136,3.080,3.080,145.957,162.732,118.157
0.467,34.285,3.064,3.064,145.871,162.613,118.181
0.469,34.444,3.043,3.043,145.779,162.489,118.217
0.470,34.612,3.020,3.020,145.679,162.364,118.269
0.472,34.788,2.999,2.999,145.573,162.240,118.337
0.474,34.972,2.982,2.982,145.463,162.119,118.420
0.475,35.160,2.973,2.973,145.350,162.003,118.516
0.477,35.350,2.973,2.973,145.237,161.891,118.621
0.479,35.539,2.979,2.979,145.127,161.786,118.733
0.480,35.724,2.988,2.988,145.023,161.687,118.848
0.482,35.901,2.998,2.998,144.925,161.596,118.964
0.484,36.066,3.006,3.006,144.838,161.514,119.078
0.485,36.217,3.010,3.010,144.763,161.441,119.188
0.487,36.351,3.008,3.008,144.703,161.379,119.290
0.489,36.472,3.001,3.001,144.653,161.326,119.387
0.490,36.583,2.991,2.991,144.611,161.281,119.479
0.492,36.689,2.979,2.979,144.572,161.242,119.570
0.493,36.793,2.965,2.965,144.533,161.207,119.660
0.495,36.900,2.953,2.953,144.490,161.175,119.751
0.497,37.012,2.942,2.942,144.439,161.144,119.847
0.498,37.135,2.933,2.933,144.376,161.113,119.948
0.500,37.273,2.928,2.928,144.297,161.080,120.056
0.502,37.429,2.927,2.927,144.201,161.044,120.173
0.503,37.599,2.930,2.930,144.089,161.007,120.295
0.505,37.778,2.940,2.940,143.967,160.969,120.420
0.507,37.959,2.956,2.956,143.839,160.934,120.544
0.508,38.138,2.975,2.975,143.710,160.902,120.664
0.510,38.307,2.996,2.996,143.585,160.875,120.776
0.511,38.462,3.016,3.016,143.469,160.856,120.876
0.513,38.597,3.031,3.031,143.366,160.845,120.962
0.515,38.706,3.040,3.040,143.280,160.846,121.029
0.516,38.788,3.039,3.039,143.215,160.858,121.077
0.518,38.849,3.029,3.029,143.165,160.879,121.106
0.520,38.898,3.012,3.012,143.126,160.905,121.120
0.521,38.944,2.990,2.990,143.091,160.933,121.123
0.523,38.990,2.964,2.964,143.053,160.961,121.118
0.525,39.042,2.938,2.938,143.007,160.983,121.109
0.526,39.105,2.912,2.912,142.947,160.997,121.097
0.528,39.186,2.887,2.887,142.866,161.000,121.088
0.530,39.294,2.862,2.862,142.760,160.987,121.084
0.531,39.434,2.836,2.836,142.623,160.957,121.087
0.533,39.602,2.808,2.808,142.461,160.913,121.097
0.534,39.790,2.777,2.777,142.282,160.858,121.113
0.536,39.991,2.742,2.742,142.092,160.795,121.133
0.538,40.197,2.702,2.702,141.899,160.727,121.157
0.539,40.400,2.661,2.661,141.710,160.660,121.182
0.541,40.592,2.619,2.619,141.531,160.595,121.207
0.543,40.765,2.578,2.578,141.369,160.536,121.232
0.544,40.912,2.541,2.541,141.233,160.487,121.254
0.546,41.027,2.508,2.508,141.126,160.449,121.274
0.548,41.114,2.481,2.481,141.046,160.420,121.289
0.549,41.178,2.461,2.461,140.988,160.392,121.302
0.551,41.227,2.446,2.446,140.950,160.363,121.310
0.552,41.271,2.437,2.437,140.927,160.326,121.314
0.554,41.321,2.435,2.435,140.916,160.278,121.315
0.556,41.387,2.438,2.438,140.911,160.212,121.311
0.557,41.475,2.446,2.446,140.911,160.125,121.302
0.559,41.590,2.459,2.459,140.909,160.010,121.289
0.561,41.735,2.477,2.477,140.904,159.866,121.272
0.562,41.904,2.499,2.499,140.895,159.698,121.253
0.564,42.093,2.524,2.524,140.882,159.510,121.236
0.566,42.296,2.551,2.551,140.864,159.309,121.223
0.567,42.506,2.581,2.581,140.840,159.100,121.217
0.569,42.719,2.610,2.610,140.812,158.889,121.222
0.570,42.930,2.638,2.638,140.778,158.681,121.240
0.572,43.135,2.662,2.662,140.739,158.483,121.275
0.574,43.332,2.681,2.681,140.693,158.300,121.329
0.575,43.520,2.693,2.693,140.642,158.135,121.403
0.577,43.703,2.695,2.695,140.585,157.987,121.495
0.579,43.884,2.691,2.691,140.525,157.854,121.601
0.580,44.064,2.682,2.682,140.461,157.733,121.718
0.582,44.243,2.670,2.670,140.395,157.621,121.842
0.584,44.421,2.659,2.659,140.329,157.517,121.970
0.585,44.596,2.651,2.651,140.262,157.417,122.097
0.587,44.767,2.650,2.650,140.196,157.320,122.222
0.589,44.932,2.654,2.654,140.132,157.222,122.339
0.590,45.091,2.663,2.663,140.071,157.123,122.447
0.592,45.244,2.677,2.677,140.010,157.022,122.544
0.593,45.391,2.694,2.694,139.949,156.922,122.632
0.595,45.533,2.713,2.713,139.886,156.821,122.710
0.597,45.670,2.733,2.733,139.820,156.722,122.779
0.598,45.804,2.754,2.754,139.749,156.626,122.837
0.600,45.935,2.775,2.775,139.671,156.532,122.886
0.602,46.064,2.795,2.795,139.586,156.442,122.925
0.603,46.195,2.814,2.814,139.492,156.357,122.954
0.605,46.327,2.831,2.831,139.388,156.277,122.974
0.607,46.463,2.846,2.846,139.277,156.201,122.986
0.608,46.600,2.859,2.859,139.160,156.129,122.991
0.610,46.739,2.871,2.871,139.041,156.058,122.991
0.611,46.877,2.885,2.885,138.921,155.989,122.986
0.613,47.014,2.903,2.903,138.803,155.920,122.980
0.615,47.147,2.926,2.926,138.690,155.850,122.972
0.616,47.276,2.956,2.956,138.583,155.778,122.964
0.618,47.399,2.994,2.994,138.486,155.703,122.958
0.620,47.516,3.037,3.037,138.399,155.625,122.955
0.621,47.625,3.081,3.081,138.324,155.546,122.954
0.623,47.727,3.124,3.124,138.259,155.468,122.958
0.625,47.820,3.161,3.161,138.205,155.393,122.966
0.626,47.903,3.191,3.191,138.161,155.323,122.979
0.628,47.976,3.209,3.209,138.128,155.260,122.998
0.630,48.039,3.218,3.218,138.106,155.207,123.023
0.631,48.092,3.220,3.220,138.094,155.165,123.054
0.633,48.140,3.217,3.217,138.093,155.137,123.092
0.634,48.187,3.212,3.212,138.099,155.122,123.137
0.636,48.235,3.207,3.207,138.107,155.117,123.184
0.638,48.281,3.204,3.204,138.110,155.118,123.229
0.639,48.322,3.203,3.203,138.100,155.121,123.269
0.641,48.365,3.203,3.203,138.072,155.121,123.300
0.643,48.423,3.203,3.203,138.017,155.114,123.318
0.644,48.513,3.201,3.201,137.928,155.096,123.319
0.646,48.646,3.198,3.198,137.800,155.063,123.298
0.648,48.835,3.191,3.191,137.625,155.011,123.253
0.649,49.079,3.181,3.181,137.403,154.939,123.182
0.651,49.366,3.167,3.167,137.145,154.852,123.090
0.652,49.684,3.149,3.149,136.862,154.753,122.985
0.654,50.016,3.127,3.127,136.568,154.650,122.870
0.656,50.349,3.102,3.102,136.275,154.545,122.753
0.657,50.668,3.073,3.073,135.993,154.445,122.639
0.659,50.960,3.041,3.041,135.737,154.354,122.534
0.661,51.209,3.010,3.010,135.517,154.278,122.444
0.662,51.402,2.981,2.981,135.347,154.221,122.374
0.664,51.533,2.959,2.959,135.230,154.185,122.327
0.666,51.610,2.945,2.945,135.160,154.167,122.301
0.667,51.642,2.943,2.943,135.129,154.161,122.292
0.669,51.649,2.952,2.952,135.130,154.165,122.298
