"T","Distance","Radius","FreeRadius","X","Y","Z"
0.000,0.000,1.563,1.563,132.184,170.575,155.796
0.001,0.028,1.556,1.556,132.204,170.593,155.804
0.003,0.055,1.550,1.550,132.222,170.610,155.813
0.004,0.081,1.545,1.545,132.240,170.627,155.822
0.006,0.105,1.542,1.542,132.257,170.641,155.832
0.007,0.127,1.542,1.542,132.271,170.652,155.845
0.009,0.147,1.545,1.545,132.283,170.660,155.859
0.010,0.166,1.552,1.552,132.292,170.664,155.875
0.011,0.186,1.563,1.563,132.298,170.663,155.895
0.013,0.210,1.577,1.577,132.299,170.656,155.918
0.014,0.240,1.591,1.591,132.297,170.644,155.944
0.016,0.274,1.604,1.604,132.290,170.626,155.973
0.017,0.311,1.614,1.614,132.282,170.607,156.003
0.019,0.343,1.617,1.617,132.276,170.590,156.031
0.020,0.368,1.613,1.613,132.274,170.580,156.053
0.021,0.383,1.600,1.600,132.279,170.581,156.068
0.023,0.405,1.579,1.579,132.294,170.596,156.072
0.024,0.450,1.555,1.555,132.321,170.631,156.062
0.026,0.525,1.529,1.529,132.363,170.688,156.037
0.027,0.637,1.506,1.506,132.423,170.772,155.993
0.029,0.792,1.488,1.488,132.503,170.887,155.927
0.030,0.986,1.478,1.478,132.603,171.030,155.842
0.031,1.213,1.479,1.479,132.717,171.198,155.741
0.033,1.463,1.493,1.493,132.842,171.383,155.629
0.034,1.728,1.518,1.518,132.974,171.580,155.509
0.036,2.000,1.554,1.554,133.107,171.783,155.388
0.037,2.271,1.601,1.601,133.239,171.987,155.268
0.039,2.532,1.658,1.658,133.365,172.185,155.154
0.040,2.774,1.725,1.725,133.480,172.373,155.052
0.041,2.991,1.801,1.801,133.580,172.543,154.964
0.043,3.174,1.884,1.884,133.663,172.692,154.895
0.044,3.326,1.968,1.968,133.728,172.819,154.844
0.046,3.450,2.049,2.049,133.778,172.927,154.809
0.047,3.550,2.122,2.122,133.816,173.016,154.786
0.049,3.629,2.184,2.184,133.845,173.089,154.773
0.050,3.693,2.230,2.230,133.867,173.148,154.768
0.052,3.742,2.255,2.255,133.885,173.195,154.767
0.053,3.782,2.262,2.262,133.901,173.231,154.770
0.054,3.814,2.254,2.254,133.917,173.258,154.772
0.056,3.842,2.238,2.238,133.937,173.278,154.771
0.057,3.872,2.216,2.216,133.962,173.293,154.766
0.059,3.905,2.195,2.195,133.993,173.305,154.757
0.060,3.943,2.178,2.178,134.028,173.314,154.746
0.062,3.986,2.171,2.171,134.067,173.322,154.734
0.063,4.032,2.173,2.173,134.111,173.331,154.722
0.064,4.082,2.183,2.183,134.159,173.342,154.711
0.066,4.135,2.197,2.197,134.210,173.355,154.702
0.067,4.193,2.213,2.213,134.264,173.374,154.697
0.069,4.255,2.229,2.229,134.321,173.398,154.697
0.070,4.322,2.243,2.243,134.380,173.430,154.702
0.072,4.396,2.251,2.251,134.441,173.470,154.713
0.073,4.473,2.254,2.254,134.502,173.514,154.730
0.074,4.552,2.253,2.253,134.562,173.562,154.751
0.076,4.631,2.249,2.249,134.618,173.611,154.776
0.077,4.707,2.244,2.244,134.670,173.659,154.805
0.079,4.778,2.240,2.240,134.716,173.704,154.835
0.080,4.843,2.237,2.237,134.754,173.745,154.867
0.082,4.898,2.237,2.237,134.782,173.779,154.900
0.083,4.943,2.240,2.240,134.800,173.805,154.932
0.084,4.979,2.245,2.245,134.806,173.820,154.964
0.086,5.010,2.250,2.250,134.803,173.826,154.995
0.087,5.040,2.253,2.253,134.798,173.828,155.024
0.089,5.066,2.254,2.254,134.795,173.828,155.050
0.090,5.090,2.251,2.251,134.801,173.829,155.073
0.092,5.119,2.242,2.242,134.821,173.836,155.094
0.093,5.165,2.228,2.228,134.861,173.852,155.110
0.094,5.237,2.212,2.212,134.926,173.879,155.122
0.096,5.343,2.196,2.196,135.022,173.923,155.129
0.097,5.490,2.185,2.185,135.155,173.986,155.130
0.099,5.682,2.180,2.180,135.328,174.069,155.126
0.100,5.913,2.185,2.185,135.535,174.171,155.117
0.102,6.172,2.203,2.203,135.766,174.288,155.106
0.103,6.451,2.234,2.234,136.014,174.414,155.094
0.104,6.739,2.274,2.274,136.271,174.546,155.082
0.106,7.029,2.321,2.321,136.527,174.680,155.072
0.107,7.310,2.372,2.372,136.776,174.812,155.065
0.109,7.573,2.423,2.423,137.007,174.937,155.064
0.110,7.809,2.471,2.471,137.213,175.052,155.069
0.112,8.010,2.512,2.512,137.386,175.153,155.082
0.113,8.171,2.546,2.546,137.522,175.238,155.103
0.114,8.300,2.573,2.573,137.627,175.308,155.128
0.116,8.403,2.596,2.596,137.707,175.367,155.154
0.117,8.485,2.617,2.617,137.768,175.417,155.176
0.119,8.552,2.636,2.636,137.816,175.461,155.190
0.120,8.609,2.657,2.657,137.858,175.500,155.194
0.122,8.665,2.680,2.680,137.899,175.537,155.183
0.123,8.732,2.708,2.708,137.945,175.575,155.154
0.124,8.820,2.740,2.740,138.003,175.616,155.102
0.126,8.937,2.777,2.777,138.077,175.663,155.024
0.127,9.083,2.820,2.820,138.169,175.714,154.923
0.129,9.249,2.869,2.869,138.275,175.769,154.807
0.130,9.428,2.924,2.924,138.389,175.826,154.683
0.132,9.610,2.986,2.986,138.509,175.883,154.557
0.133,9.789,3.055,3.055,138.631,175.937,154.438
0.134,9.956,3.127,3.127,138.750,175.988,154.332
0.136,10.104,3.197,3.197,138.862,176.032,154.247
0.137,10.226,3.264,3.264,138.963,176.069,154.190
0.139,10.320,3.322,3.322,139.050,176.097,154.169
0.140,10.394,3.369,3.369,139.120,176.114,154.189
0.142,10.472,3.400,3.400,139.174,176.122,154.245
0.143,10.565,3.414,3.414,139.216,176.123,154.329
0.144,10.675,3.414,3.414,139.248,176.121,154.433
0.146,10.794,3.403,3.403,139.276,176.117,154.549
0.147,10.917,3.387,3.387,139.302,176.115,154.669
0.149,11.037,3.367,3.367,139.329,176.118,154.786
0.150,11.147,3.349,3.349,139.362,176.127,154.890
0.152,11.243,3.337,3.337,139.403,176.146,154.975
0.153,11.327,3.332,3.332,139.456,176.178,155.032
0.155,11.412,3.335,3.335,139.523,176.223,155.057
0.156,11.512,3.345,3.345,139.603,176.284,155.053
0.157,11.634,3.362,3.362,139.693,176.362,155.025
0.159,11.778,3.383,3.383,139.791,176.457,154.978
0.160,11.944,3.409,3.409,139.895,176.571,154.917
0.162,12.130,3.438,3.438,140.004,176.703,154.847
0.163,12.333,3.471,3.471,140.115,176.856,154.771
0.165,12.553,3.506,3.506,140.226,177.030,154.695
0.166,12.789,3.546,3.546,140.335,177.227,154.623
0.167,13.040,3.591,3.591,140.440,177.446,154.561
0.169,13.305,3.641,3.641,140.542,177.685,154.510
0.170,13.580,3.697,3.697,140.640,177.939,154.470
0.172,13.859,3.760,3.760,140.735,178.199,154.440
0.173,14.137,3.831,3.831,140.829,178.461,154.422
0.175,14.410,3.906,3.906,140.923,178.716,154.414
0.176,14.671,3.984,3.984,141.017,178.960,154.416
0.177,14.916,4.062,4.062,141.113,179.185,154.427
0.179,15.139,4.136,4.136,141.211,179.385,154.449
0.180,15.338,4.205,4.205,141.313,179.553,154.480
0.182,15.512,4.265,4.265,141.419,179.684,154.520
0.183,15.665,4.315,4.315,141.529,179.779,154.568
0.185,15.803,4.353,4.353,141.639,179.844,154.621
0.186,15.933,4.382,4.382,141.749,179.882,154.678
0.187,16.056,4.401,4.401,141.857,179.899,154.737
0.189,16.175,4.412,4.412,141.960,179.900,154.795
0.190,16.287,4.414,4.414,142.056,179.889,154.851
0.192,16.390,4.409,4.409,142.144,179.872,154.903
0.193,16.482,4.397,4.397,142.222,179.852,154.949
0.195,16.560,4.381,4.381,142.287,179.835,154.986
0.196,16.619,4.362,4.362,142.339,179.825,155.014
0.197,16.662,4.342,4.342,142.377,179.820,155.033
0.199,16.690,4.323,4.323,142.402,179.820,155.044
0.200,16.704,4.308,4.308,142.415,179.824,155.048
0.202,16.710,4.298,4.298,142.416,179.830,155.046
0.203,16.724,4.296,4.296,142.405,179.836,155.039
0.205,16.749,4.300,4.300,142.384,179.843,155.027
0.206,16.785,4.309,4.309,142.351,179.848,155.013
0.207,16.830,4.320,4.320,142.310,179.849,154.997
0.209,16.884,4.332,4.332,142.258,179.847,154.979
0.210,16.946,4.344,4.344,142.199,179.843,154.961
0.212,17.013,4.352,4.352,142.134,179.840,154.944
0.213,17.082,4.356,4.356,142.067,179.843,154.929
0.215,17.151,4.355,4.355,142.001,179.859,154.916
0.216,17.222,4.351,4.351,141.938,179.890,154.906
0.217,17.300,4.345,4.345,141.881,179.943,154.901
0.219,17.392,4.338,4.338,141.834,180.022,154.900
0.220,17.508,4.332,4.332,141.798,180.132,154.906
0.222,17.656,4.327,4.327,141.777,180.278,154.919
0.223,17.843,4.325,4.325,141.773,180.464,154.939
0.225,18.066,4.326,4.326,141.786,180.685,154.967
0.226,18.317,4.329,4.329,141.814,180.933,154.998
0.227,18.586,4.335,4.335,141.854,181.196,155.031
0.229,18.863,4.343,4.343,141.904,181.467,155.064
0.230,19.137,4.352,4.352,141.961,181.733,155.095
0.232,19.400,4.363,4.363,142.023,181.987,155.121
0.233,19.641,4.374,4.374,142.088,182.218,155.139
0.235,19.850,4.386,4.386,142.153,182.417,155.148
0.236,20.018,4.398,4.398,142.216,182.573,155.145
0.237,20.141,4.410,4.410,142.275,182.680,155.129
0.239,20.228,4.422,4.422,142.326,182.745,155.103
0.240,20.290,4.433,4.433,142.368,182.779,155.072
0.242,20.336,4.443,4.443,142.397,182.792,155.040
0.243,20.368,4.452,4.452,142.411,182.795,155.011
0.245,20.390,4.458,4.458,142.408,182.800,154.990
0.246,20.420,4.460,4.460,142.384,182.817,154.981
0.247,20.482,4.456,4.456,142.337,182.857,154.990
0.249,20.590,4.444,4.444,142.265,182.931,155.019
0.250,20.754,4.423,4.423,142.165,183.049,155.075
0.252,20.981,4.390,4.390,142.036,183.215,155.157
0.253,21.258,4.344,4.344,141.884,183.422,155.262
0.255,21.573,4.286,4.286,141.715,183.658,155.385
0.256,21.914,4.219,4.219,141.534,183.914,155.520
0.258,22.268,4.145,4.145,141.347,184.178,155.663
0.259,22.623,4.070,4.070,141.159,184.442,155.807
0.260,22.964,3.994,3.994,140.977,184.694,155.949
0.262,23.281,3.923,3.923,140.807,184.925,156.082
0.263,23.559,3.859,3.859,140.653,185.124,156.202
0.265,23.788,3.804,3.804,140.521,185.281,156.304
0.266,23.965,3.758,3.758,140.414,185.394,156.386
0.268,24.096,3.720,3.720,140.328,185.469,156.452
0.269,24.190,3.689,3.689,140.262,185.511,156.504
0.270,24.256,3.665,3.665,140.213,185.525,156.545
0.272,24.303,3.648,3.648,140.180,185.517,156.578
0.273,24.345,3.637,3.637,140.160,185.492,156.605
0.275,24.390,3.630,3.630,140.151,185.456,156.629
0.276,24.438,3.627,3.627,140.150,185.413,156.653
0.278,24.490,3.625,3.625,140.157,185.370,156.680
0.279,24.541,3.623,3.623,140.168,185.331,156.712
0.280,24.592,3.617,3.617,140.180,185.301,156.751
0.282,24.643,3.607,3.607,140.190,185.281,156.797
0.283,24.697,3.590,3.590,140.194,185.276,156.851
0.285,24.761,3.565,3.565,140.187,185.288,156.913
0.286,24.842,3.533,3.533,140.167,185.319,156.985
0.288,24.947,3.496,3.496,140.130,185.374,157.067
0.289,25.083,3.452,3.452,140.072,185.455,157.160
0.290,25.256,3.405,3.405,139.990,185.565,157.264
0.292,25.471,3.353,3.353,139.879,185.707,157.381
0.293,25.729,3.299,3.299,139.738,185.881,157.510
0.295,26.022,3.242,3.242,139.573,186.079,157.649
0.296,26.340,3.186,3.186,139.389,186.293,157.796
0.298,26.673,3.131,3.131,139.192,186.514,157.947
0.299,27.008,3.079,3.079,138.989,186.733,158.101
0.300,27.337,3.032,3.032,138.786,186.940,158.255
0.302,27.648,2.992,2.992,138.588,187.127,158.406
0.303,27.932,2.961,2.961,138.402,187.285,158.551
0.305,28.181,2.938,2.938,138.233,187.404,158.690
0.306,28.387,2.922,2.922,138.088,187.477,158.817
0.308,28.557,2.910,2.910,137.969,187.502,158.935
0.309,28.705,2.897,2.897,137.874,187.487,159.048
0.310,28.846,2.882,2.882,137.799,187.441,159.158
0.312,28.990,2.861,2.861,137.743,187.373,159.272
0.313,29.140,2.832,2.832,137.702,187.292,159.392
0.315,29.300,2.792,2.792,137.674,187.206,159.523
0.316,29.469,2.745,2.745,137.656,187.125,159.670
0.318,29.649,2.694,2.694,137.646,187.057,159.837
0.319,29.845,2.641,2.641,137.641,187.011,160.027
0.320,30.063,2.591,2.591,137.637,186.995,160.245
0.322,30.307,2.546,2.546,137.636,187.009,160.488
0.323,30.572,2.510,2.510,137.636,187.046,160.751
0.325,30.854,2.486,2.486,137.638,187.102,161.027
0.326,31.146,2.471,2.471,137.641,187.169,161.311
0.328,31.441,2.464,2.464,137.647,187.244,161.597
0.329,31.733,2.464,2.464,137.655,187.319,161.879
0.330,32.015,2.467,2.467,137.665,187.389,162.152
0.332,32.279,2.473,2.473,137.677,187.448,162.409
0.333,32.519,2.479,2.479,137.692,187.491,162.645
0.335,32.731,2.484,2.484,137.709,187.514,162.855
0.336,32.917,2.488,2.488,137.730,187.517,163.040
0.338,33.081,2.492,2.492,137.754,187.503,163.201
0.339,33.226,2.496,2.496,137.781,187.476,163.341
0.340,33.356,2.501,2.501,137.812,187.439,163.461
0.342,33.473,2.507,2.507,137.847,187.394,163.564
0.343,33.581,2.516,2.516,137.887,187.344,163.650
0.345,33.681,2.527,2.527,137.932,187.292,163.723
0.346,33.774,2.540,2.540,137.981,187.241,163.783
0.348,33.862,2.553,2.553,138.036,187.193,163.833
0.349,33.946,2.567,2.567,138.096,187.151,163.875
0.351,34.026,2.579,2.579,138.156,187.114,163.911
0.352,34.099,2.589,2.589,138.213,187.081,163.943
0.353,34.165,2.596,2.596,138.263,187.052,163.975
0.355,34.222,2.599,2.599,138.302,187.025,164.007
0.356,34.273,2.598,2.598,138.326,187.000,164.044
0.358,34.322,2.594,2.594,138.332,186.977,164.087
0.359,34.381,2.587,2.587,138.316,186.954,164.138
0.361,34.460,2.577,2.577,138.273,186.930,164.201
0.362,34.568,2.566,2.566,138.200,186.906,164.277
0.363,34.706,2.554,2.554,138.098,186.880,164.366
0.365,34.867,2.540,2.540,137.974,186.854,164.465
0.366,35.048,2.527,2.527,137.831,186.828,164.573
0.368,35.242,2.514,2.514,137.675,186.801,164.685
0.369,35.444,2.502,2.502,137.512,186.776,164.801
0.371,35.647,2.492,2.492,137.347,186.750,164.917
0.372,35.847,2.485,2.485,137.184,186.727,165.031
0.373,36.037,2.481,2.481,137.030,186.704,165.139
0.375,36.211,2.481,2.481,136.890,186.684,165.241
0.376,36.365,2.484,2.484,136.768,186.666,165.333
0.378,36.499,2.489,2.489,136.665,186.651,165.417
0.379,36.617,2.495,2.495,136.578,186.639,165.497
0.381,36.723,2.500,2.500,136.507,186.630,165.574
0.382,36.820,2.503,2.503,136.449,186.626,165.653
0.383,36.914,2.503,2.503,136.405,186.625,165.735
0.385,37.010,2.500,2.500,136.371,186.630,165.825
0.386,37.112,2.492,2.492,136.347,186.639,165.924
0.388,37.226,2.482,2.482,136.331,186.654,166.035
0.389,37.355,2.470,2.470,136.321,186.674,166.162
0.391,37.501,2.459,2.459,136.317,186.700,166.306
0.392,37.663,2.448,2.448,136.318,186.731,166.465
0.393,37.836,2.440,2.440,136.323,186.766,166.635
0.395,38.019,2.436,2.436,136.330,186.802,166.814
0.396,38.208,2.435,2.435,136.341,186.840,166.998
0.398,38.400,2.439,2.439,136.354,186.878,167.186
0.399,38.591,2.447,2.447,136.368,186.915,167.374
0.401,38.780,2.460,2.460,136.382,186.949,167.558
0.402,38.962,2.476,2.476,136.397,186.980,167.737
0.403,39.135,2.498,2.498,136.411,187.006,167.908
0.405,39.298,2.523,2.523,136.424,187.027,168.068
0.406,39.451,2.553,2.553,136.436,187.041,168.220
0.408,39.596,2.585,2.585,136.448,187.050,168.365
0.409,39.734,2.619,2.619,136.459,187.053,168.502
0.411,39.866,2.653,2.653,136.470,187.048,168.634
0.412,39.995,2.687,2.687,136.481,187.038,168.762
0.413,40.120,2.718,2.718,136.493,187.020,168.886
0.415,40.245,2.747,2.747,136.504,186.994,169.007
0.416,40.370,2.772,2.772,136.516,186.961,169.127
0.418,40.497,2.794,2.794,136.529,186.921,169.246
0.419,40.625,2.812,2.812,136.542,186.874,169.365
0.421,40.752,2.828,2.828,136.556,186.822,169.481
0.422,40.878,2.840,2.840,136.571,186.768,169.593
0.423,40.999,2.849,2.849,136.587,186.713,169.700
0.425,41.114,2.855,2.855,136.603,186.659,169.801
0.426,41.222,2.858,2.858,136.620,186.609,169.894
0.428,41.319,2.859,2.859,136.638,186.563,169.978
0.429,41.405,2.857,2.857,136.656,186.524,170.051
0.431,41.476,2.852,2.852,136.675,186.494,170.114
0.432,41.533,2.844,2.844,136.695,186.474,170.164
0.433,41.578,2.833,2.833,136.714,186.463,170.202
0.435,41.611,2.820,2.820,136.733,186.460,170.229
0.436,41.636,2.805,2.805,136.750,186.465,170.246
0.438,41.655,2.789,2.789,136.765,186.475,170.255
0.439,41.674,2.774,2.774,136.776,186.489,170.256
0.441,41.695,2.763,2.763,136.784,186.507,170.251
0.442,41.718,2.755,2.755,136.787,186.528,170.240
0.443,41.744,2.754,2.754,136.785,186.549,170.224
0.445,41.774,2.761,2.761,136.777,186.569,170.204
0.446,41.806,2.775,2.775,136.763,186.589,170.183
0.448,41.837,2.793,2.793,136.745,186.605,170.162
0.449,41.865,2.812,2.812,136.728,186.618,170.145
0.451,41.886,2.827,2.827,136.712,186.626,170.134
0.452,41.898,2.836,2.836,136.700,186.627,170.132
0.454,41.910,2.835,2.835,136.696,186.621,170.141
0.455,41.938,2.820,2.820,136.701,186.606,170.165
0.456,41.989,2.791,2.791,136.719,186.582,170.206
0.458,42.066,2.749,2.749,136.751,186.546,170.267
0.459,42.174,2.699,2.699,136.800,186.498,170.350
0.461,42.311,2.643,2.643,136.866,186.439,170.453
0.462,42.471,2.586,2.586,136.945,186.369,170.574
0.464,42.650,2.529,2.529,137.035,186.290,170.707
0.465,42.842,2.478,2.478,137.133,186.205,170.848
0.466,43.042,2.434,2.434,137.235,186.114,170.994
0.468,43.244,2.397,2.397,137.340,186.019,171.140
0.469,43.445,2.366,2.366,137.443,185.922,171.281
0.471,43.638,2.342,2.342,137.542,185.823,171.414
0.472,43.818,2.325,2.325,137.635,185.726,171.535
0.474,43.983,2.313,2.313,137.718,185.631,171.640
0.475,44.133,2.307,2.307,137.794,185.541,171.733
0.476,44.270,2.306,2.306,137.863,185.458,171.818
0.478,44.399,2.309,2.309,137.928,185.385,171.901
0.479,44.522,2.314,2.314,137.992,185.323,171.987
0.481,44.644,2.319,2.319,138.055,185.276,172.080
0.482,44.772,2.323,2.323,138.121,185.246,172.185
0.484,44.914,2.325,2.325,138.191,185.235,172.309
0.485,45.078,2.323,2.323,138.267,185.246,172.454
0.486,45.274,2.316,2.316,138.351,185.281,172.628
0.488,45.505,2.304,2.304,138.444,185.341,172.830
0.489,45.763,2.287,2.287,138.545,185.422,173.053
0.491,46.040,2.267,2.267,138.650,185.521,173.290
0.492,46.327,2.243,2.243,138.759,185.633,173.531
0.494,46.616,2.217,2.217,138.868,185.755,173.769
0.495,46.897,2.188,2.188,138.975,185.883,173.995
0.496,47.162,2.158,2.158,139.078,186.014,174.200
0.498,47.401,2.129,2.129,139.176,186.142,174.378
0.499,47.608,2.104,2.104,139.265,186.265,174.518
0.501,47.776,2.084,2.084,139.343,186.378,174.614
0.502,47.908,2.073,2.073,139.413,186.479,174.665
0.504,48.016,2.072,2.072,139.476,186.564,174.683
0.505,48.108,2.084,2.084,139.539,186.631,174.678
0.506,48.190,2.111,2.111,139.604,186.677,174.660
0.508,48.268,2.146,2.146,139.675,186.700,174.639
0.509,48.351,2.184,2.184,139.758,186.696,174.626
0.511,48.454,2.218,2.218,139.855,186.664,174.631
0.512,48.591,2.240,2.240,139.972,186.600,174.665
0.514,48.777,2.244,2.244,140.112,186.501,174.739
0.515,49.022,2.224,2.224,140.277,186.367,174.859
0.516,49.322,2.174,2.174,140.466,186.201,175.024
0.518,49.663,2.099,2.099,140.669,186.012,175.222
0.519,50.032,2.008,2.008,140.879,185.807,175.445
0.521,50.414,1.909,1.909,141.090,185.594,175.681
0.522,50.794,1.812,1.812,141.293,185.381,175.922
0.524,51.159,1.724,1.724,141.482,185.175,176.156
0.525,51.494,1.653,1.653,141.649,184.984,176.375
0.526,51.785,1.608,1.608,141.787,184.817,176.569
0.528,52.017,1.585,1.585,141.888,184.680,176.727
0.529,52.182,1.579,1.579,141.949,184.579,176.842
0.531,52.287,1.583,1.583,141.977,184.510,176.917
0.532,52.345,1.591,1.591,141.982,184.470,176.958
0.534,52.366,1.598,1.598,141.973,184.452,176.967
0.535,52.388,1.597,1.597,141.961,184.453,176.950
0.536,52.430,1.583,1.583,141.954,184.466,176.911
0.538,52.491,1.558,1.558,141.962,184.489,176.855
0.539,52.572,1.526,1.526,141.995,184.514,176.785
0.541,52.678,1.493,1.493,142.063,184.539,176.707
0.542,52.817,1.464,1.464,142.175,184.557,176.626
0.544,52.995,1.444,1.444,142.332,184.565,176.545
0.545,53.205,1.438,1.438,142.528,184.562,176.468
0.546,53.439,1.450,1.450,142.752,184.546,176.402
0.548,53.689,1.478,1.478,142.995,184.515,176.350
0.549,53.949,1.518,1.518,143.248,184.467,176.316
0.551,54.212,1.565,1.565,143.502,184.401,176.306
0.552,54.472,1.614,1.614,143.747,184.315,176.324
0.554,54.729,1.659,1.659,143.975,184.208,176.375
0.555,54.985,1.697,1.697,144.176,184.077,176.462
0.557,55.246,1.722,1.722,144.342,183.922,176.590
0.558,55.521,1.733,1.733,144.473,183.744,176.756
0.559,55.813,1.732,1.732,144.572,183.548,176.948
0.561,56.117,1.720,1.720,144.645,183.340,177.158
0.562,56.429,1.699,1.699,144.698,183.125,177.376
0.564,56.739,1.669,1.669,144.734,182.906,177.593
0.565,57.039,1.633,1.633,144.758,182.689,177.798
0.567,57.320,1.591,1.591,144.777,182.479,177.984
0.568,57.572,1.547,1.547,144.793,182.280,178.139
0.569,57.789,1.504,1.504,144.813,182.097,178.254
0.571,57.967,1.468,1.468,144.841,181.935,178.323
0.572,58.116,1.441,1.441,144.876,181.793,178.348
0.574,58.248,1.428,1.428,144.917,181.668,178.334
0.575,58.375,1.433,1.433,144.964,181.559,178.288
0.577,58.504,1.460,1.460,145.015,181.465,178.216
0.578,58.640,1.507,1.507,145.070,181.383,178.123
0.579,58.781,1.568,1.568,145.127,181.313,178.015
0.581,58.926,1.638,1.638,145.185,181.251,177.898
0.582,59.070,1.709,1.709,145.244,181.196,177.778
0.584,59.210,1.777,1.777,145.302,181.147,177.660
