"T","Distance","Radius","FreeRadius","X","Y","Z"
0.000,0.000,1.563,1.563,132.184,170.575,155.796
0.001,0.026,1.557,1.557,132.203,170.592,155.804
0.003,0.052,1.551,1.551,132.220,170.609,155.812
0.004,0.077,1.546,1.546,132.237,170.624,155.820
0.005,0.100,1.543,1.543,132.253,170.638,155.830
0.006,0.121,1.542,1.542,132.267,170.649,155.841
0.008,0.141,1.543,1.543,132.279,170.658,155.854
0.009,0.159,1.547,1.547,132.289,170.663,155.869
0.010,0.178,1.555,1.555,132.296,170.664,155.886
0.011,0.199,1.566,1.566,132.299,170.660,155.907
0.013,0.223,1.579,1.579,132.299,170.651,155.930
0.014,0.254,1.592,1.592,132.294,170.637,155.956
0.015,0.288,1.604,1.604,132.287,170.619,155.985
0.016,0.322,1.613,1.613,132.280,170.601,156.012
0.018,0.351,1.616,1.616,132.275,170.586,156.037
0.019,0.372,1.612,1.612,132.275,170.579,156.057
0.020,0.386,1.600,1.600,132.281,170.582,156.069
0.021,0.409,1.577,1.577,132.296,170.599,156.071
0.023,0.454,1.546,1.546,132.323,170.633,156.061
0.024,0.526,1.512,1.512,132.363,170.688,156.037
0.025,0.632,1.479,1.479,132.420,170.767,155.995
0.026,0.776,1.450,1.450,132.495,170.874,155.935
0.028,0.956,1.430,1.430,132.587,171.007,155.856
0.029,1.166,1.424,1.424,132.693,171.163,155.762
0.030,1.399,1.434,1.434,132.810,171.335,155.658
0.031,1.647,1.466,1.466,132.933,171.519,155.546
0.033,1.904,1.516,1.516,133.060,171.710,155.431
0.034,2.162,1.580,1.580,133.186,171.904,155.316
0.035,2.414,1.654,1.654,133.308,172.095,155.206
0.036,2.653,1.733,1.733,133.423,172.278,155.103
0.038,2.872,1.814,1.814,133.526,172.449,155.012
0.039,3.065,1.891,1.891,133.614,172.602,154.936
0.040,3.227,1.960,1.960,133.685,172.735,154.877
0.041,3.362,2.017,2.017,133.742,172.850,154.833
0.043,3.473,2.063,2.063,133.786,172.947,154.803
0.044,3.563,2.097,2.097,133.820,173.028,154.784
0.045,3.635,2.123,2.123,133.846,173.095,154.773
0.046,3.694,2.141,2.141,133.866,173.149,154.768
0.048,3.741,2.154,2.154,133.883,173.193,154.768
0.049,3.778,2.163,2.163,133.898,173.228,154.770
0.050,3.810,2.169,2.169,133.914,173.255,154.772
0.051,3.839,2.175,2.175,133.934,173.276,154.771
0.053,3.869,2.181,2.181,133.959,173.292,154.767
0.054,3.902,2.186,2.186,133.989,173.305,154.759
0.055,3.940,2.192,2.192,134.023,173.316,154.748
0.056,3.981,2.197,2.197,134.061,173.326,154.736
0.058,4.025,2.202,2.202,134.102,173.335,154.724
0.059,4.071,2.208,2.208,134.146,173.344,154.713
0.060,4.120,2.213,2.213,134.193,173.356,154.704
0.061,4.171,2.219,2.219,134.241,173.370,154.697
0.063,4.224,2.224,2.224,134.291,173.387,154.695
0.064,4.279,2.230,2.230,134.342,173.409,154.698
0.065,4.337,2.234,2.234,134.392,173.437,154.706
0.066,4.399,2.239,2.239,134.443,173.469,154.720
0.068,4.464,2.242,2.242,134.493,173.506,154.739
0.069,4.531,2.244,2.244,134.542,173.546,154.762
0.070,4.599,2.245,2.245,134.589,173.588,154.787
0.071,4.668,2.245,2.245,134.635,173.631,154.815
0.073,4.735,2.243,2.243,134.678,173.674,154.844
0.074,4.800,2.241,2.241,134.718,173.716,154.873
0.075,4.862,2.238,2.238,134.755,173.756,154.902
0.076,4.919,2.236,2.236,134.789,173.793,154.929
0.078,4.970,2.234,2.234,134.818,173.827,154.953
0.079,5.015,2.232,2.232,134.844,173.856,154.975
0.080,5.055,2.233,2.233,134.868,173.882,154.996
0.081,5.092,2.235,2.235,134.891,173.904,155.014
0.083,5.127,2.240,2.240,134.915,173.923,155.031
0.084,5.163,2.245,2.245,134.942,173.938,155.048
0.085,5.200,2.251,2.251,134.973,173.952,155.064
0.086,5.242,2.257,2.257,135.010,173.962,155.081
0.088,5.290,2.262,2.262,135.054,173.971,155.098
0.089,5.345,2.266,2.266,135.106,173.978,155.116
0.090,5.411,2.268,2.268,135.169,173.984,155.136
0.091,5.488,2.266,2.266,135.242,173.989,155.159
0.093,5.575,2.262,2.262,135.324,173.992,155.185
0.094,5.671,2.255,2.255,135.416,173.995,155.217
0.095,5.777,2.246,2.246,135.514,173.998,155.255
0.096,5.892,2.236,2.236,135.619,174.000,155.303
0.098,6.016,2.226,2.226,135.729,174.003,155.360
0.099,6.149,2.215,2.215,135.842,174.006,155.429
0.100,6.291,2.205,2.205,135.959,174.009,155.511
0.101,6.444,2.197,2.197,136.077,174.013,155.607
0.103,6.607,2.189,2.189,136.195,174.019,155.719
0.104,6.782,2.182,2.182,136.312,174.025,155.848
0.105,6.965,2.175,2.175,136.428,174.033,155.991
0.106,7.153,2.167,2.167,136.540,174.042,156.141
0.108,7.342,2.157,2.157,136.648,174.053,156.297
0.109,7.529,2.144,2.144,136.749,174.064,156.453
0.110,7.708,2.127,2.127,136.844,174.076,156.604
0.111,7.876,2.106,2.106,136.931,174.090,156.748
0.113,8.029,2.081,2.081,137.008,174.104,156.879
0.114,8.162,2.052,2.052,137.074,174.119,156.993
0.115,8.271,2.022,2.022,137.128,174.135,157.086
0.116,8.352,1.992,1.992,137.169,174.151,157.155
0.118,8.409,1.963,1.963,137.199,174.166,157.201
0.119,8.446,1.938,1.938,137.219,174.178,157.229
0.120,8.466,1.918,1.918,137.231,174.183,157.244
0.121,8.475,1.904,1.904,137.237,174.180,157.250
0.123,8.489,1.897,1.897,137.241,174.167,157.252
0.124,8.517,1.896,1.896,137.243,174.140,157.254
0.125,8.560,1.899,1.899,137.246,174.097,157.261
0.126,8.623,1.904,1.904,137.252,174.036,157.277
0.128,8.711,1.909,1.909,137.263,173.955,157.307
0.129,8.827,1.912,1.912,137.281,173.850,157.355
0.130,8.971,1.912,1.912,137.307,173.726,157.422
0.131,9.136,1.907,1.907,137.340,173.586,157.503
0.133,9.316,1.895,1.895,137.380,173.437,157.596
0.134,9.505,1.877,1.877,137.427,173.284,157.697
0.135,9.697,1.855,1.855,137.479,173.133,157.803
0.136,9.884,1.829,1.829,137.537,172.990,157.909
0.138,10.062,1.801,1.801,137.600,172.860,158.013
0.139,10.224,1.771,1.771,137.667,172.750,158.111
0.140,10.367,1.742,1.742,137.738,172.664,158.200
0.141,10.487,1.714,1.714,137.813,172.609,158.276
0.143,10.589,1.688,1.688,137.891,172.584,158.337
0.144,10.683,1.665,1.665,137.972,172.584,158.386
0.145,10.776,1.645,1.645,138.056,172.598,158.422
0.146,10.870,1.628,1.628,138.144,172.620,158.449
0.148,10.966,1.615,1.615,138.235,172.641,158.467
0.149,11.062,1.605,1.605,138.330,172.653,158.478
0.150,11.162,1.600,1.600,138.429,172.647,158.484
0.151,11.269,1.599,1.599,138.532,172.616,158.486
0.153,11.394,1.603,1.603,138.639,172.551,158.486
0.154,11.548,1.610,1.610,138.750,172.444,158.485
0.155,11.740,1.622,1.622,138.865,172.291,158.485
0.156,11.965,1.637,1.637,138.982,172.098,158.486
0.158,12.216,1.656,1.656,139.098,171.876,158.487
0.159,12.484,1.677,1.677,139.211,171.633,158.490
0.160,12.760,1.700,1.700,139.319,171.379,158.494
0.161,13.034,1.724,1.724,139.419,171.124,158.499
0.163,13.296,1.750,1.750,139.509,170.878,158.506
0.164,13.538,1.777,1.777,139.588,170.649,158.515
0.165,13.750,1.805,1.805,139.651,170.447,158.525
0.166,13.922,1.833,1.833,139.698,170.282,158.536
0.168,14.047,1.860,1.860,139.727,170.161,158.550
0.169,14.128,1.888,1.888,139.739,170.082,158.564
0.170,14.175,1.914,1.914,139.738,170.037,158.578
0.171,14.199,1.939,1.939,139.728,170.018,158.589
0.173,14.216,1.963,1.963,139.713,170.018,158.597
0.174,14.236,1.985,1.985,139.697,170.030,158.600
0.175,14.257,2.007,2.007,139.683,170.044,158.596
0.176,14.275,2.029,2.029,139.675,170.055,158.585
0.178,14.295,2.050,2.050,139.677,170.055,158.564
0.179,14.335,2.072,2.072,139.692,170.035,158.533
0.180,14.406,2.095,2.095,139.724,169.989,158.490
0.181,14.509,2.119,2.119,139.773,169.917,158.436
0.183,14.638,2.145,2.145,139.837,169.824,158.373
0.184,14.788,2.172,2.172,139.912,169.714,158.304
0.185,14.952,2.200,2.200,139.996,169.592,158.233
0.186,15.123,2.228,2.228,140.086,169.465,158.160
0.188,15.297,2.254,2.254,140.179,169.337,158.090
0.189,15.465,2.279,2.279,140.272,169.214,158.024
0.190,15.622,2.301,2.301,140.364,169.100,157.966
0.191,15.762,2.319,2.319,140.450,169.000,157.917
0.193,15.880,2.333,2.333,140.528,168.921,157.881
0.194,15.973,2.343,2.343,140.597,168.862,157.858
0.195,16.047,2.350,2.350,140.657,168.820,157.846
0.196,16.108,2.355,2.355,140.709,168.790,157.843
0.198,16.158,2.358,2.358,140.753,168.765,157.847
0.199,16.203,2.360,2.360,140.791,168.742,157.855
0.200,16.246,2.363,2.363,140.822,168.715,157.864
0.202,16.291,2.368,2.368,140.848,168.680,157.874
0.203,16.345,2.374,2.374,140.869,168.630,157.881
0.204,16.415,2.383,2.383,140.886,168.562,157.883
0.205,16.509,2.394,2.394,140.900,168.470,157.877
0.207,16.629,2.408,2.408,140.910,168.351,157.863
0.208,16.771,2.424,2.424,140.918,168.210,157.842
0.209,16.930,2.443,2.443,140.923,168.054,157.815
0.210,17.099,2.463,2.463,140.925,167.887,157.785
0.212,17.273,2.486,2.486,140.924,167.717,157.753
0.213,17.444,2.512,2.512,140.921,167.548,157.721
0.214,17.607,2.538,2.538,140.915,167.388,157.691
0.215,17.757,2.566,2.566,140.906,167.241,157.666
0.217,17.885,2.594,2.594,140.895,167.115,157.645
0.218,17.988,2.621,2.621,140.881,167.014,157.633
0.219,18.060,2.646,2.646,140.865,166.944,157.629
0.220,18.105,2.669,2.669,140.848,166.902,157.633
0.222,18.132,2.689,2.689,140.832,166.882,157.642
0.223,18.151,2.704,2.704,140.817,166.881,157.653
0.224,18.170,2.715,2.715,140.806,166.891,157.664
0.225,18.191,2.722,2.722,140.799,166.909,157.673
0.227,18.211,2.727,2.727,140.800,166.928,157.677
0.228,18.229,2.729,2.729,140.808,166.944,157.673
0.229,18.253,2.729,2.729,140.826,166.951,157.660
0.230,18.293,2.729,2.729,140.855,166.944,157.633
0.232,18.357,2.729,2.729,140.897,166.918,157.592
0.233,18.447,2.728,2.728,140.950,166.872,157.536
0.234,18.558,2.729,2.729,141.014,166.810,157.469
0.235,18.688,2.731,2.731,141.085,166.734,157.391
0.237,18.830,2.735,2.735,141.161,166.649,157.306
0.238,18.981,2.740,2.740,141.240,166.557,157.216
0.239,19.137,2.746,2.746,141.319,166.461,157.123
0.240,19.292,2.755,2.755,141.398,166.365,157.031
0.242,19.442,2.766,2.766,141.472,166.271,156.940
0.243,19.583,2.779,2.779,141.540,166.183,156.854
0.244,19.710,2.795,2.795,141.601,166.104,156.775
0.245,19.821,2.812,2.812,141.652,166.035,156.703
0.247,19.919,2.831,2.831,141.696,165.975,156.640
0.248,20.004,2.850,2.850,141.735,165.924,156.584
0.249,20.079,2.870,2.870,141.770,165.880,156.534
0.250,20.146,2.889,2.889,141.802,165.842,156.490
0.252,20.206,2.907,2.907,141.835,165.809,156.451
0.253,20.263,2.924,2.924,141.869,165.779,156.417
0.254,20.317,2.939,2.939,141.906,165.752,156.388
0.255,20.373,2.953,2.953,141.948,165.727,156.362
0.257,20.432,2.965,2.965,141.997,165.702,156.340
0.258,20.497,2.976,2.976,142.053,165.676,156.320
0.259,20.566,2.986,2.986,142.114,165.649,156.301
0.260,20.638,2.995,2.995,142.176,165.620,156.282
0.262,20.709,3.003,3.003,142.238,165.588,156.262
0.263,20.780,3.011,3.011,142.294,165.553,156.241
0.264,20.847,3.018,3.018,142.343,165.513,156.215
0.265,20.913,3.025,3.025,142.382,165.470,156.186
0.267,20.978,3.034,3.034,142.407,165.421,156.151
0.268,21.047,3.043,3.043,142.415,165.366,156.108
0.269,21.127,3.053,3.053,142.403,165.305,156.058
0.270,21.223,3.066,3.066,142.369,165.237,156.000
0.272,21.337,3.081,3.081,142.315,165.163,155.933
0.273,21.464,3.099,3.099,142.245,165.084,155.861
0.274,21.603,3.120,3.120,142.161,165.003,155.786
0.275,21.750,3.144,3.144,142.068,164.920,155.709
0.277,21.900,3.169,3.169,141.968,164.837,155.632
0.278,22.050,3.195,3.195,141.866,164.755,155.558
0.279,22.196,3.221,3.221,141.766,164.676,155.489
0.280,22.333,3.246,3.246,141.669,164.602,155.425
0.282,22.458,3.270,3.270,141.581,164.534,155.370
0.283,22.566,3.291,3.291,141.504,164.473,155.326
0.284,22.656,3.310,3.310,141.439,164.420,155.291
0.285,22.729,3.325,3.325,141.388,164.375,155.266
0.287,22.785,3.336,3.336,141.349,164.339,155.248
0.288,22.825,3.344,3.344,141.322,164.311,155.238
0.289,22.849,3.348,3.348,141.307,164.292,155.232
0.290,22.859,3.349,3.349,141.305,164.283,155.231
0.292,22.869,3.345,3.345,141.315,164.282,155.234
0.293,22.894,3.336,3.336,141.337,164.292,155.238
0.294,22.933,3.324,3.324,141.371,164.311,155.242
0.295,22.988,3.308,3.308,141.417,164.340,155.246
0.297,23.054,3.290,3.290,141.472,164.377,155.249
0.298,23.122,3.271,3.271,141.529,164.416,155.251
0.299,23.185,3.252,3.252,141.581,164.450,155.250
0.300,23.231,3.234,3.234,141.621,164.474,155.247
0.302,23.255,3.219,3.219,141.642,164.482,155.242
0.303,23.272,3.207,3.207,141.638,164.468,155.235
0.304,23.329,3.201,3.201,141.601,164.425,155.224
0.305,23.438,3.200,3.200,141.525,164.347,155.211
0.307,23.609,3.207,3.207,141.403,164.230,155.194
0.308,23.851,3.222,3.222,141.227,164.066,155.174
0.309,24.166,3.248,3.248,140.995,163.853,155.150
0.310,24.543,3.286,3.286,140.717,163.600,155.125
0.312,24.966,3.336,3.336,140.405,163.315,155.100
0.313,25.421,3.401,3.401,140.070,163.008,155.076
0.314,25.893,3.481,3.481,139.723,162.689,155.057
0.315,26.367,3.574,3.574,139.377,162.366,155.043
0.317,26.828,3.676,3.676,139.041,162.050,155.037
0.318,27.262,3.783,3.783,138.729,161.749,155.040
0.319,27.654,3.891,3.891,138.450,161.472,155.054
0.320,27.991,3.995,3.995,138.218,161.230,155.080
0.322,28.261,4.093,4.093,138.040,161.030,155.121
0.323,28.472,4.180,4.180,137.914,160.870,155.172
0.324,28.632,4.252,4.252,137.833,160.744,155.229
0.325,28.753,4.310,4.310,137.788,160.648,155.288
0.327,28.844,4.355,4.355,137.774,160.576,155.342
0.328,28.914,4.391,4.391,137.782,160.524,155.389
0.329,28.970,4.418,4.418,137.805,160.486,155.422
0.330,29.015,4.440,4.440,137.837,160.458,155.438
0.332,29.056,4.457,4.457,137.869,160.433,155.431
0.333,29.106,4.473,4.473,137.894,160.408,155.397
0.334,29.179,4.490,4.490,137.907,160.377,155.332
0.335,29.280,4.507,4.507,137.905,160.338,155.239
0.337,29.403,4.525,4.525,137.890,160.294,155.125
0.338,29.542,4.543,4.543,137.866,160.244,154.997
0.339,29.689,4.561,4.561,137.834,160.190,154.864
0.340,29.837,4.579,4.579,137.797,160.133,154.733
0.342,29.978,4.597,4.597,137.757,160.073,154.612
0.343,30.106,4.613,4.613,137.717,160.012,154.507
0.344,30.213,4.629,4.629,137.678,159.951,154.428
0.345,30.298,4.643,4.643,137.644,159.889,154.380
0.347,30.364,4.656,4.656,137.616,159.830,154.373
0.348,30.434,4.667,4.667,137.596,159.772,154.406
0.349,30.522,4.676,4.676,137.583,159.717,154.473
0.350,30.632,4.682,4.682,137.576,159.663,154.569
0.352,30.758,4.686,4.686,137.573,159.613,154.685
0.353,30.897,4.688,4.688,137.576,159.565,154.815
0.354,31.041,4.686,4.686,137.581,159.520,154.952
0.355,31.185,4.682,4.682,137.589,159.478,155.089
0.357,31.322,4.675,4.675,137.600,159.439,155.220
0.358,31.445,4.667,4.667,137.611,159.404,155.337
0.359,31.547,4.657,4.657,137.622,159.372,155.434
0.360,31.626,4.647,4.647,137.633,159.343,155.507
0.362,31.686,4.637,4.637,137.646,159.315,155.558
0.363,31.733,4.627,4.627,137.660,159.287,155.592
0.364,31.774,4.619,4.619,137.679,159.256,155.613
0.365,31.819,4.611,4.611,137.703,159.221,155.624
0.367,31.871,4.603,4.603,137.733,159.178,155.630
0.368,31.935,4.594,4.594,137.771,159.127,155.633
0.369,32.012,4.582,4.582,137.818,159.065,155.639
0.370,32.107,4.567,4.567,137.875,158.991,155.652
0.372,32.223,4.548,4.548,137.945,158.902,155.674
0.373,32.361,4.524,4.524,138.027,158.796,155.709
0.374,32.518,4.494,4.494,138.119,158.678,155.755
0.375,32.688,4.457,4.457,138.217,158.550,155.810
0.377,32.865,4.417,4.417,138.319,158.418,155.869
0.378,33.044,4.375,4.375,138.421,158.284,155.930
0.379,33.218,4.333,4.333,138.519,158.153,155.989
0.380,33.382,4.294,4.294,138.610,158.029,156.044
0.382,33.528,4.261,4.261,138.691,157.916,156.090
0.383,33.653,4.234,4.234,138.759,157.817,156.125
0.384,33.749,4.217,4.217,138.809,157.738,156.146
0.385,33.814,4.210,4.210,138.839,157.681,156.150
0.387,33.853,4.209,4.209,138.851,157.644,156.139
0.388,33.881,4.211,4.211,138.848,157.625,156.119
0.389,33.909,4.212,4.212,138.834,157.618,156.095
0.390,33.938,4.210,4.210,138.815,157.618,156.073
0.392,33.964,4.200,4.200,138.794,157.621,156.059
0.393,33.983,4.179,4.179,138.775,157.624,156.059
0.394,34.005,4.144,4.144,138.763,157.620,156.077
0.395,34.050,4.093,4.093,138.761,157.607,156.119
0.397,34.129,4.028,4.028,138.775,157.578,156.192
0.398,34.251,3.952,3.952,138.807,157.531,156.300
0.399,34.418,3.867,3.867,138.860,157.464,156.444
0.401,34.626,3.776,3.776,138.933,157.377,156.618
0.402,34.869,3.682,3.682,139.023,157.272,156.818
0.403,35.141,3.586,3.586,139.130,157.151,157.036
0.404,35.436,3.491,3.491,139.252,157.014,157.267
0.406,35.749,3.400,3.400,139.389,156.865,157.507
0.407,36.076,3.313,3.313,139.537,156.703,157.748
0.408,36.410,3.231,3.231,139.697,156.530,157.986
0.409,36.747,3.154,3.154,139.867,156.349,158.214
0.411,37.083,3.082,3.082,140.045,156.160,158.427
0.412,37.415,3.017,3.017,140.229,155.965,158.622
0.413,37.739,2.958,2.958,140.417,155.767,158.797
0.414,38.054,2.907,2.907,140.604,155.568,158.955
0.416,38.358,2.863,2.863,140.789,155.373,159.095
0.417,38.646,2.827,2.827,140.967,155.183,159.219
0.418,38.916,2.797,2.797,141.135,155.001,159.327
0.419,39.165,2.772,2.772,141.291,154.831,159.420
0.421,39.388,2.753,2.753,141.430,154.675,159.498
0.422,39.583,2.739,2.739,141.550,154.536,159.563
0.423,39.745,2.728,2.728,141.647,154.417,159.615
0.424,39.873,2.721,2.721,141.719,154.319,159.655
0.426,39.969,2.717,2.717,141.769,154.242,159.684
0.427,40.040,2.714,2.714,141.798,154.181,159.705
0.428,40.091,2.713,2.713,141.811,154.134,159.720
0.429,40.129,2.712,2.712,141.812,154.097,159.731
0.431,40.162,2.711,2.711,141.802,154.068,159.740
0.432,40.193,2.709,2.709,141.786,154.043,159.748
0.433,40.225,2.704,2.704,141.766,154.019,159.758
0.434,40.261,2.697,2.697,141.747,153.992,159.772
0.436,40.301,2.687,2.687,141.731,153.961,159.792
0.437,40.351,2.674,2.674,141.721,153.921,159.820
0.438,40.410,2.659,2.659,141.717,153.874,159.854
0.439,40.476,2.644,2.644,141.719,153.821,159.895
0.441,40.549,2.628,2.628,141.725,153.764,159.939
0.442,40.624,2.613,2.613,141.733,153.705,159.986
0.443,40.700,2.600,2.600,141.743,153.647,160.034
0.444,40.773,2.590,2.590,141.752,153.591,160.080
0.446,40.842,2.583,2.583,141.759,153.539,160.124
0.447,40.902,2.578,2.578,141.764,153.493,160.163
0.448,40.953,2.576,2.576,141.765,153.456,160.197
0.449,40.991,2.574,2.574,141.760,153.429,160.223
0.451,41.019,2.573,2.573,141.749,153.411,160.242
0.452,41.041,2.571,2.571,141.736,153.399,160.256
0.453,41.063,2.568,2.568,141.720,153.389,160.266
0.454,41.084,2.562,2.562,141.705,153.378,160.275
0.456,41.108,2.552,2.552,141.691,153.361,160.286
0.457,41.138,2.540,2.540,141.682,153.335,160.299
0.458,41.182,2.526,2.526,141.679,153.296,160.318
0.459,41.243,2.509,2.509,141.683,153.241,160.344
0.461,41.328,2.492,2.492,141.697,153.165,160.380
0.462,41.441,2.474,2.474,141.722,153.066,160.428
0.463,41.584,2.457,2.457,141.760,152.941,160.488
0.464,41.752,2.440,2.440,141.807,152.796,160.558
0.466,41.938,2.424,2.424,141.862,152.636,160.636
0.467,42.136,2.410,2.410,141.921,152.467,160.720
0.468,42.340,2.398,2.398,141.983,152.293,160.806
0.469,42.542,2.387,2.387,142.045,152.121,160.893
0.471,42.737,2.378,2.378,142.104,151.955,160.978
0.472,42.919,2.370,2.370,142.158,151.802,161.058
0.473,43.081,2.364,2.364,142.205,151.665,161.131
0.474,43.216,2.359,2.359,142.241,151.552,161.195
0.476,43.321,2.355,2.355,142.266,151.465,161.247
0.477,43.397,2.352,2.352,142.279,151.403,161.290
0.478,43.452,2.348,2.348,142.284,151.362,161.326
0.479,43.490,2.342,2.342,142.282,151.339,161.357
0.481,43.521,2.333,2.333,142.273,151.331,161.386
0.482,43.552,2.320,2.320,142.262,151.333,161.414
0.483,43.588,2.302,2.302,142.248,151.344,161.445
0.484,43.629,2.276,2.276,142.233,151.358,161.481
0.486,43.676,2.243,2.243,142.221,151.373,161.524
0.487,43.730,2.202,2.202,142.211,151.386,161.576
0.488,43.795,2.156,2.156,142.207,151.392,161.640
0.489,43.869,2.107,2.107,142.206,151.390,161.714
0.491,43.954,2.056,2.056,142.207,151.379,161.798
0.492,44.046,2.005,2.005,142.207,151.357,161.888
0.493,44.147,1.957,1.957,142.204,151.322,161.982
0.494,44.255,1.913,1.913,142.196,151.273,162.078
0.496,44.372,1.876,1.876,142.180,151.208,162.175
0.497,44.499,1.845,1.845,142.155,151.127,162.269
0.498,44.639,1.821,1.821,142.118,151.027,162.359
0.499,44.793,1.804,1.804,142.067,150.907,162.442
0.501,44.967,1.793,1.793,141.999,150.765,162.516
0.502,45.160,1.788,1.788,141.916,150.604,162.581
0.503,45.369,1.789,1.789,141.820,150.427,162.639
0.504,45.591,1.796,1.796,141.716,150.238,162.689
0.506,45.820,1.807,1.807,141.607,150.041,162.734
0.507,46.052,1.824,1.824,141.496,149.841,162.775
0.508,46.282,1.844,1.844,141.388,149.643,162.813
0.509,46.504,1.868,1.868,141.285,149.449,162.850
0.511,46.714,1.894,1.894,141.191,149.264,162.886
