"T","Distance","Radius","FreeRadius","X","Y","Z"
0.000,0.000,1.563,1.563,132.184,170.575,155.796
0.001,0.028,1.559,1.559,132.203,170.593,155.804
0.002,0.054,1.556,1.556,132.222,170.610,155.812
0.003,0.080,1.553,1.553,132.240,170.626,155.822
0.005,0.104,1.552,1.552,132.256,170.640,155.832
0.006,0.126,1.551,1.551,132.271,170.652,155.844
0.007,0.146,1.552,1.552,132.282,170.660,155.858
0.008,0.165,1.554,1.554,132.292,170.664,155.875
0.009,0.185,1.558,1.558,132.297,170.663,155.894
0.010,0.209,1.564,1.564,132.299,170.657,155.916
0.011,0.237,1.573,1.573,132.297,170.645,155.942
0.013,0.272,1.582,1.582,132.291,170.627,155.971
0.014,0.308,1.592,1.592,132.283,170.608,156.001
0.015,0.341,1.601,1.601,132.277,170.591,156.028
0.016,0.366,1.609,1.609,132.274,170.581,156.051
0.017,0.382,1.613,1.613,132.278,170.580,156.067
0.018,0.402,1.614,1.614,132.291,170.594,156.072
0.019,0.443,1.609,1.609,132.317,170.625,156.064
0.020,0.514,1.599,1.599,132.357,170.679,156.041
0.022,0.620,1.583,1.583,132.414,170.759,156.000
0.023,0.768,1.564,1.564,132.491,170.868,155.938
0.024,0.956,1.545,1.545,132.587,171.007,155.856
0.025,1.177,1.528,1.528,132.699,171.171,155.757
0.026,1.422,1.518,1.518,132.821,171.352,155.647
0.027,1.683,1.516,1.516,132.951,171.546,155.530
0.028,1.953,1.527,1.527,133.084,171.747,155.409
0.030,2.223,1.552,1.552,133.216,171.950,155.289
0.031,2.484,1.595,1.595,133.342,172.148,155.175
0.032,2.729,1.655,1.655,133.459,172.337,155.071
0.033,2.949,1.730,1.730,133.561,172.510,154.981
0.034,3.138,1.814,1.814,133.646,172.662,154.909
0.035,3.294,1.903,1.903,133.714,172.792,154.854
0.036,3.423,1.991,1.991,133.766,172.903,154.816
0.038,3.526,2.076,2.076,133.806,172.995,154.791
0.039,3.609,2.151,2.151,133.837,173.071,154.776
0.040,3.676,2.213,2.213,133.860,173.133,154.769
0.041,3.728,2.258,2.258,133.878,173.182,154.768
0.042,3.770,2.283,2.283,133.894,173.220,154.770
0.043,3.804,2.293,2.293,133.911,173.250,154.772
0.044,3.835,2.290,2.290,133.931,173.273,154.771
0.045,3.866,2.278,2.278,133.956,173.291,154.767
0.047,3.901,2.260,2.260,133.987,173.305,154.759
0.048,3.940,2.238,2.238,134.023,173.316,154.748
0.049,3.982,2.217,2.217,134.063,173.326,154.736
0.050,4.029,2.199,2.199,134.106,173.336,154.723
0.051,4.078,2.187,2.187,134.153,173.346,154.712
0.052,4.130,2.183,2.183,134.202,173.358,154.702
0.053,4.183,2.184,2.184,134.253,173.373,154.696
0.055,4.239,2.191,2.191,134.305,173.393,154.695
0.056,4.298,2.200,2.200,134.359,173.418,154.700
0.057,4.360,2.212,2.212,134.412,173.449,154.711
0.058,4.426,2.224,2.224,134.464,173.485,154.728
0.059,4.495,2.235,2.235,134.516,173.525,154.749
0.060,4.566,2.245,2.245,134.567,173.568,154.775
0.061,4.638,2.251,2.251,134.616,173.612,154.803
0.063,4.709,2.254,2.254,134.662,173.657,154.833
0.064,4.779,2.254,2.254,134.705,173.702,154.863
0.065,4.845,2.252,2.252,134.745,173.745,154.894
0.066,4.906,2.249,2.249,134.781,173.785,154.922
0.067,4.960,2.245,2.245,134.813,173.821,154.949
0.068,5.008,2.241,2.241,134.840,173.852,154.972
0.069,5.051,2.239,2.239,134.865,173.880,154.994
0.070,5.090,2.237,2.237,134.890,173.903,155.013
0.072,5.127,2.237,2.237,134.915,173.923,155.031
0.073,5.164,2.239,2.239,134.944,173.939,155.049
0.074,5.204,2.243,2.243,134.977,173.953,155.066
0.075,5.248,2.246,2.246,135.016,173.964,155.083
0.076,5.299,2.250,2.250,135.063,173.973,155.101
0.077,5.360,2.254,2.254,135.120,173.980,155.121
0.078,5.432,2.256,2.256,135.188,173.985,155.142
0.080,5.516,2.256,2.256,135.268,173.990,155.167
0.081,5.610,2.255,2.255,135.358,173.993,155.196
0.082,5.716,2.250,2.250,135.457,173.996,155.232
0.083,5.831,2.243,2.243,135.564,173.999,155.277
0.084,5.956,2.234,2.234,135.676,174.001,155.331
0.085,6.091,2.222,2.222,135.794,174.004,155.398
0.086,6.236,2.209,2.209,135.914,174.008,155.478
0.088,6.392,2.194,2.194,136.038,174.012,155.573
0.089,6.559,2.178,2.178,136.161,174.017,155.686
0.090,6.739,2.161,2.161,136.285,174.024,155.817
0.091,6.930,2.143,2.143,136.406,174.032,155.963
0.092,7.126,2.125,2.125,136.524,174.041,156.120
0.093,7.325,2.107,2.107,136.638,174.052,156.282
0.094,7.520,2.089,2.089,136.745,174.063,156.446
0.095,7.708,2.073,2.073,136.844,174.076,156.605
0.097,7.884,2.057,2.057,136.935,174.090,156.755
0.098,8.042,2.043,2.043,137.015,174.105,156.891
0.099,8.179,2.030,2.030,137.083,174.121,157.008
0.100,8.288,2.020,2.020,137.137,174.138,157.101
0.101,8.368,2.012,2.012,137.177,174.155,157.168
0.102,8.421,2.007,2.007,137.205,174.170,157.211
0.103,8.454,2.004,2.004,137.223,174.181,157.236
0.105,8.470,2.003,2.003,137.234,174.183,157.247
0.106,8.480,2.002,2.002,137.239,174.176,157.251
0.107,8.500,2.000,2.000,137.242,174.156,157.253
0.108,8.537,1.997,1.997,137.244,174.119,157.257
0.109,8.593,1.992,1.992,137.249,174.064,157.269
0.110,8.674,1.984,1.984,137.258,173.988,157.294
0.111,8.785,1.973,1.973,137.274,173.887,157.337
0.113,8.927,1.957,1.957,137.299,173.763,157.401
0.114,9.095,1.938,1.938,137.332,173.620,157.483
0.115,9.281,1.916,1.916,137.372,173.465,157.578
0.116,9.478,1.891,1.891,137.420,173.305,157.683
0.117,9.679,1.864,1.864,137.474,173.147,157.793
0.118,9.875,1.836,1.836,137.535,172.996,157.904
0.119,10.062,1.807,1.807,137.600,172.860,158.013
0.120,10.232,1.777,1.777,137.671,172.745,158.116
0.122,10.379,1.747,1.747,137.746,172.657,158.208
0.123,10.502,1.718,1.718,137.824,172.603,158.286
0.124,10.607,1.690,1.690,137.906,172.583,158.348
0.125,10.705,1.664,1.664,137.992,172.586,158.395
0.126,10.803,1.641,1.641,138.081,172.604,158.431
0.127,10.902,1.623,1.623,138.174,172.628,158.456
0.128,11.002,1.609,1.609,138.271,172.647,158.472
0.130,11.104,1.600,1.600,138.373,172.653,158.481
0.131,11.211,1.597,1.597,138.478,172.636,158.485
0.132,11.332,1.602,1.602,138.588,172.587,158.486
0.133,11.478,1.613,1.613,138.702,172.495,158.485
0.134,11.663,1.630,1.630,138.821,172.354,158.485
0.135,11.887,1.651,1.651,138.943,172.166,158.485
0.136,12.142,1.675,1.675,139.065,171.941,158.487
0.138,12.419,1.701,1.701,139.184,171.691,158.489
0.139,12.707,1.727,1.727,139.299,171.427,158.493
0.140,12.995,1.751,1.751,139.405,171.160,158.499
0.141,13.272,1.774,1.774,139.501,170.900,158.506
0.142,13.528,1.792,1.792,139.584,170.659,158.514
0.143,13.750,1.807,1.807,139.652,170.447,158.525
0.144,13.929,1.819,1.819,139.700,170.275,158.537
0.145,14.056,1.829,1.829,139.729,170.152,158.551
0.147,14.136,1.840,1.840,139.739,170.074,158.566
0.148,14.181,1.851,1.851,139.737,170.032,158.580
0.149,14.203,1.864,1.864,139.725,170.017,158.591
0.150,14.221,1.879,1.879,139.709,170.021,158.598
0.151,14.243,1.900,1.900,139.692,170.034,158.599
0.152,14.263,1.925,1.925,139.679,170.049,158.593
0.153,14.281,1.955,1.955,139.674,170.057,158.577
0.155,14.310,1.989,1.989,139.682,170.048,158.551
0.156,14.367,2.025,2.025,139.706,170.015,158.512
0.157,14.460,2.062,2.062,139.750,169.951,158.460
0.158,14.585,2.100,2.100,139.811,169.861,158.398
0.159,14.736,2.136,2.136,139.886,169.751,158.328
0.160,14.903,2.170,2.170,139.971,169.628,158.253
0.161,15.082,2.200,2.200,140.064,169.496,158.177
0.163,15.263,2.226,2.226,140.161,169.361,158.103
0.164,15.441,2.247,2.247,140.259,169.231,158.033
0.165,15.608,2.264,2.264,140.355,169.110,157.971
0.166,15.756,2.278,2.278,140.446,169.005,157.919
0.167,15.879,2.289,2.289,140.528,168.921,157.881
0.168,15.976,2.298,2.298,140.600,168.860,157.857
0.169,16.053,2.305,2.305,140.662,168.817,157.846
0.170,16.115,2.311,2.311,140.716,168.786,157.843
0.172,16.167,2.316,2.316,140.761,168.761,157.848
0.173,16.213,2.322,2.322,140.799,168.736,157.857
0.174,16.257,2.328,2.328,140.830,168.706,157.867
0.175,16.307,2.335,2.335,140.856,168.665,157.877
0.176,16.369,2.344,2.344,140.876,168.607,157.882
0.177,16.451,2.356,2.356,140.892,168.525,157.881
0.178,16.562,2.369,2.369,140.905,168.416,157.871
0.180,16.700,2.386,2.386,140.914,168.279,157.853
0.181,16.860,2.407,2.407,140.921,168.122,157.827
0.182,17.034,2.431,2.431,140.924,167.951,157.797
0.183,17.214,2.460,2.460,140.925,167.773,157.764
0.184,17.395,2.493,2.493,140.922,167.595,157.730
0.185,17.569,2.527,2.527,140.916,167.425,157.698
0.186,17.729,2.562,2.562,140.908,167.267,157.670
0.188,17.868,2.596,2.596,140.897,167.131,157.648
0.189,17.979,2.629,2.629,140.883,167.022,157.634
0.190,18.056,2.659,2.659,140.866,166.946,157.629
0.191,18.105,2.684,2.684,140.848,166.901,157.633
0.192,18.133,2.704,2.704,140.831,166.882,157.642
0.193,18.152,2.718,2.718,140.816,166.881,157.654
0.194,18.172,2.726,2.726,140.804,166.894,157.666
0.195,18.194,2.730,2.730,140.799,166.913,157.674
0.197,18.214,2.730,2.730,140.801,166.933,157.677
0.198,18.234,2.728,2.728,140.812,166.947,157.670
0.199,18.263,2.726,2.726,140.834,166.950,157.652
0.200,18.313,2.723,2.723,140.870,166.936,157.619
0.201,18.392,2.721,2.721,140.919,166.900,157.570
0.202,18.497,2.721,2.721,140.980,166.844,157.505
0.203,18.624,2.724,2.724,141.050,166.771,157.429
0.205,18.767,2.730,2.730,141.128,166.686,157.343
0.206,18.922,2.738,2.738,141.210,166.592,157.250
0.207,19.084,2.749,2.749,141.293,166.493,157.154
0.208,19.247,2.761,2.761,141.376,166.392,157.057
0.209,19.406,2.775,2.775,141.455,166.292,156.961
0.210,19.556,2.790,2.790,141.528,166.199,156.869
0.211,19.692,2.806,2.806,141.593,166.114,156.785
0.213,19.811,2.823,2.823,141.648,166.041,156.710
0.214,19.914,2.840,2.840,141.694,165.978,156.643
0.215,20.003,2.858,2.858,141.735,165.924,156.583
0.216,20.082,2.876,2.876,141.771,165.878,156.531
0.217,20.151,2.895,2.895,141.806,165.839,156.486
0.218,20.214,2.914,2.914,141.840,165.804,156.446
0.219,20.272,2.934,2.934,141.876,165.774,156.411
0.220,20.329,2.954,2.954,141.916,165.746,156.382
0.222,20.388,2.974,2.974,141.962,165.720,156.355
0.223,20.452,2.995,2.995,142.015,165.693,156.333
0.224,20.522,3.016,3.016,142.076,165.666,156.312
0.225,20.596,3.036,3.036,142.141,165.636,156.293
0.226,20.671,3.056,3.056,142.206,165.605,156.273
0.227,20.746,3.075,3.075,142.268,165.570,156.251
0.228,20.818,3.093,3.093,142.324,165.531,156.227
0.230,20.887,3.109,3.109,142.369,165.487,156.198
0.231,20.955,3.124,3.124,142.400,165.438,156.163
0.232,21.026,3.136,3.136,142.414,165.382,156.121
0.233,21.106,3.145,3.145,142.408,165.320,156.071
0.234,21.203,3.152,3.152,142.377,165.250,156.011
0.235,21.319,3.158,3.158,142.324,165.173,155.943
0.236,21.451,3.163,3.163,142.252,165.091,155.868
0.238,21.596,3.168,3.168,142.165,165.006,155.789
0.239,21.749,3.173,3.173,142.067,164.919,155.709
0.240,21.907,3.181,3.181,141.963,164.832,155.629
0.241,22.064,3.191,3.191,141.856,164.747,155.551
0.242,22.216,3.204,3.204,141.751,164.665,155.479
0.243,22.357,3.221,3.221,141.651,164.588,155.414
0.244,22.484,3.242,3.242,141.561,164.518,155.359
0.245,22.592,3.264,3.264,141.484,164.457,155.315
0.247,22.681,3.286,3.286,141.421,164.404,155.282
0.248,22.751,3.308,3.308,141.371,164.360,155.258
0.249,22.803,3.327,3.327,141.335,164.325,155.243
0.250,22.837,3.342,3.342,141.313,164.301,155.235
0.251,22.855,3.351,3.351,141.305,164.286,155.231
0.252,22.861,3.353,3.353,141.310,164.281,155.232
0.253,22.881,3.346,3.346,141.328,164.287,155.236
0.255,22.916,3.333,3.333,141.359,164.304,155.241
0.256,22.969,3.314,3.314,141.403,164.331,155.245
0.257,23.036,3.292,3.292,141.459,164.368,155.249
0.258,23.108,3.269,3.269,141.518,164.409,155.250
0.259,23.175,3.247,3.247,141.574,164.446,155.250
0.260,23.226,3.227,3.227,141.618,164.473,155.248
0.261,23.252,3.213,3.213,141.642,164.482,155.243
0.263,23.269,3.207,3.207,141.638,164.467,155.235
0.264,23.331,3.209,3.209,141.598,164.422,155.224
0.265,23.450,3.220,3.220,141.515,164.338,155.209
0.266,23.638,3.240,3.240,141.380,164.209,155.191
0.267,23.904,3.270,3.270,141.186,164.028,155.169
0.268,24.250,3.307,3.307,140.931,163.795,155.144
0.269,24.659,3.354,3.354,140.630,163.520,155.117
0.270,25.115,3.408,3.408,140.294,163.213,155.092
0.272,25.599,3.470,3.470,139.937,162.886,155.068
0.273,26.096,3.539,3.539,139.572,162.549,155.050
0.274,26.589,3.616,3.616,139.213,162.212,155.039
0.275,27.059,3.698,3.698,138.872,161.888,155.037
0.276,27.491,3.784,3.784,138.563,161.586,155.046
0.277,27.869,3.872,3.872,138.299,161.317,155.069
0.278,28.177,3.959,3.959,138.092,161.091,155.106
0.280,28.416,4.043,4.043,137.945,160.911,155.157
0.281,28.596,4.124,4.124,137.848,160.771,155.216
0.282,28.731,4.198,4.198,137.794,160.664,155.277
0.283,28.830,4.265,4.265,137.774,160.585,155.335
0.284,28.906,4.321,4.321,137.780,160.528,155.385
0.285,28.965,4.370,4.370,137.804,160.488,155.421
0.286,29.013,4.410,4.410,137.837,160.458,155.438
0.288,29.056,4.444,4.444,137.870,160.432,155.430
0.289,29.109,4.472,4.472,137.896,160.405,155.392
0.290,29.190,4.496,4.496,137.907,160.371,155.320
0.291,29.300,4.515,4.515,137.903,160.330,155.218
0.292,29.433,4.532,4.532,137.885,160.282,155.095
0.293,29.582,4.548,4.548,137.857,160.229,154.959
0.294,29.737,4.562,4.562,137.822,160.171,154.819
0.295,29.890,4.575,4.575,137.782,160.110,154.685
0.297,30.033,4.588,4.588,137.739,160.047,154.564
0.298,30.158,4.600,4.600,137.698,159.982,154.466
0.299,30.258,4.610,4.610,137.659,159.918,154.398
0.300,30.335,4.621,4.621,137.627,159.855,154.371
0.301,30.403,4.630,4.630,137.603,159.793,154.389
0.302,30.488,4.638,4.638,137.587,159.734,154.448
0.303,30.596,4.646,4.646,137.577,159.678,154.540
0.305,30.724,4.653,4.653,137.574,159.624,154.656
0.306,30.867,4.659,4.659,137.575,159.574,154.790
0.307,31.018,4.665,4.665,137.580,159.526,154.933
0.308,31.169,4.669,4.669,137.589,159.481,155.077
0.309,31.313,4.672,4.672,137.599,159.441,155.214
0.310,31.442,4.674,4.674,137.611,159.403,155.338
0.311,31.549,4.675,4.675,137.623,159.370,155.438
0.313,31.630,4.675,4.675,137.634,159.340,155.513
0.314,31.691,4.673,4.673,137.648,159.311,155.564
0.315,31.738,4.669,4.669,137.664,159.281,155.597
0.316,31.782,4.664,4.664,137.684,159.248,155.616
0.317,31.830,4.655,4.655,137.711,159.209,155.626
0.318,31.888,4.643,4.643,137.745,159.162,155.631
0.319,31.960,4.628,4.628,137.788,159.105,155.635
0.320,32.048,4.607,4.607,137.841,159.035,155.644
0.322,32.157,4.582,4.582,137.907,158.950,155.661
0.323,32.290,4.551,4.551,137.987,158.848,155.691
0.324,32.446,4.514,4.514,138.079,158.729,155.735
0.325,32.620,4.472,4.472,138.180,158.599,155.789
0.326,32.804,4.427,4.427,138.286,158.461,155.849
0.327,32.991,4.382,4.382,138.393,158.321,155.913
0.328,33.175,4.338,4.338,138.497,158.183,155.976
0.330,33.349,4.299,4.299,138.594,158.051,156.034
0.331,33.506,4.265,4.265,138.681,157.930,156.084
0.332,33.639,4.241,4.241,138.753,157.825,156.123
0.333,33.742,4.227,4.227,138.807,157.741,156.146
0.334,33.811,4.226,4.226,138.839,157.680,156.150
0.335,33.851,4.236,4.236,138.851,157.643,156.138
0.336,33.881,4.252,4.252,138.847,157.624,156.116
0.338,33.910,4.270,4.270,138.832,157.617,156.092
0.339,33.940,4.284,4.284,138.811,157.618,156.070
0.340,33.966,4.291,4.291,138.789,157.622,156.058
0.341,33.984,4.286,4.286,138.771,157.623,156.062
0.342,34.013,4.263,4.263,138.761,157.617,156.088
0.343,34.072,4.219,4.219,138.765,157.598,156.144
0.344,34.173,4.149,4.149,138.786,157.561,156.234
0.345,34.323,4.056,4.056,138.830,157.501,156.365
0.347,34.520,3.945,3.945,138.896,157.420,156.533
0.348,34.759,3.821,3.821,138.983,157.318,156.731
0.349,35.032,3.691,3.691,139.088,157.198,156.952
0.350,35.334,3.558,3.558,139.211,157.060,157.191
0.351,35.657,3.428,3.428,139.349,156.908,157.439
0.352,35.996,3.307,3.307,139.502,156.741,157.692
0.353,36.345,3.200,3.200,139.667,156.563,157.943
0.355,36.698,3.112,3.112,139.843,156.374,158.184
0.356,37.050,3.040,3.040,140.028,156.177,158.409
0.357,37.398,2.985,2.985,140.221,155.973,158.614
0.358,37.738,2.942,2.942,140.418,155.765,158.798
0.359,38.068,2.909,2.909,140.614,155.558,158.963
0.360,38.384,2.885,2.885,140.807,155.353,159.109
0.361,38.684,2.866,2.866,140.993,155.155,159.236
0.363,38.964,2.850,2.850,141.167,154.967,159.347
0.364,39.219,2.835,2.835,141.327,154.791,159.440
0.365,39.445,2.819,2.819,141.468,154.632,159.519
0.366,39.639,2.802,2.802,141.586,154.493,159.582
0.367,39.795,2.783,2.783,141.678,154.376,159.632
0.368,39.915,2.765,2.765,141.744,154.283,159.669
0.369,40.003,2.746,2.746,141.785,154.211,159.695
0.370,40.066,2.728,2.728,141.807,154.155,159.714
0.372,40.111,2.710,2.710,141.813,154.112,159.727
0.373,40.146,2.694,2.694,141.806,154.078,159.737
0.374,40.179,2.679,2.679,141.791,154.051,159.745
0.375,40.212,2.666,2.666,141.772,154.025,159.755
0.376,40.249,2.655,2.655,141.751,153.999,159.768
0.377,40.290,2.645,2.645,141.733,153.967,159.788
0.378,40.340,2.637,2.637,141.722,153.927,159.815
0.380,40.400,2.630,2.630,141.717,153.878,159.851
0.381,40.470,2.624,2.624,141.719,153.823,159.893
0.382,40.546,2.619,2.619,141.725,153.764,159.940
0.383,40.625,2.614,2.614,141.734,153.702,159.989
0.384,40.704,2.610,2.610,141.744,153.641,160.038
0.385,40.781,2.607,2.607,141.753,153.583,160.087
0.386,40.851,2.604,2.604,141.761,153.529,160.132
0.388,40.912,2.600,2.600,141.765,153.483,160.172
0.389,40.962,2.596,2.596,141.764,153.447,160.206
0.390,40.998,2.591,2.591,141.757,153.422,160.230
0.391,41.024,2.585,2.585,141.744,153.406,160.248
0.392,41.047,2.577,2.577,141.729,153.395,160.260
0.393,41.069,2.568,2.568,141.712,153.384,160.270
0.394,41.092,2.556,2.556,141.697,153.370,160.280
0.395,41.121,2.542,2.542,141.685,153.347,160.293
0.397,41.160,2.527,2.527,141.679,153.312,160.310
0.398,41.217,2.509,2.509,141.681,153.261,160.335
0.399,41.298,2.490,2.490,141.692,153.188,160.369
0.400,41.409,2.470,2.470,141.715,153.091,160.416
0.401,41.553,2.448,2.448,141.752,152.965,160.476
0.402,41.725,2.426,2.426,141.800,152.817,160.548
0.403,41.918,2.403,2.403,141.857,152.651,160.629
0.405,42.124,2.380,2.380,141.919,152.474,160.716
0.406,42.338,2.356,2.356,141.983,152.292,160.807
0.407,42.550,2.332,2.332,142.048,152.112,160.898
0.408,42.753,2.309,2.309,142.110,151.939,160.986
0.409,42.941,2.286,2.286,142.166,151.780,161.069
0.410,43.106,2.264,2.264,142.213,151.641,161.144
0.411,43.241,2.243,2.243,142.248,151.528,161.209
0.413,43.342,2.224,2.224,142.271,151.444,161.261
0.414,43.414,2.205,2.205,142.282,151.387,161.303
0.415,43.465,2.189,2.189,142.284,151.351,161.339
0.416,43.501,2.174,2.174,142.279,151.334,161.370
0.417,43.532,2.161,2.161,142.268,151.331,161.399
0.418,43.567,2.149,2.149,142.254,151.338,161.430
0.419,43.607,2.136,2.136,142.239,151.352,161.465
0.420,43.654,2.125,2.125,142.225,151.368,161.507
0.422,43.708,2.112,2.112,142.214,151.382,161.558
0.423,43.772,2.099,2.099,142.207,151.391,161.621
0.424,43.848,2.085,2.085,142.206,151.391,161.696
0.425,43.934,2.070,2.070,142.206,151.382,161.782
0.426,44.029,2.053,2.053,142.207,151.360,161.875
0.427,44.134,2.036,2.036,142.204,151.325,161.974
0.428,44.247,2.018,2.018,142.196,151.275,162.075
0.430,44.369,2.001,2.001,142.180,151.208,162.175
0.431,44.503,1.985,1.985,142.153,151.122,162.274
0.432,44.650,1.970,1.970,142.113,151.015,162.368
0.433,44.815,1.957,1.957,142.057,150.887,162.454
0.434,45.000,1.947,1.947,141.984,150.735,162.530
0.435,45.206,1.940,1.940,141.893,150.562,162.596
0.436,45.429,1.936,1.936,141.790,150.372,162.654
0.438,45.665,1.935,1.935,141.679,150.171,162.705
0.439,45.906,1.937,1.937,141.564,149.964,162.751
0.440,46.149,1.942,1.942,141.448,149.754,162.792
0.441,46.387,1.950,1.950,141.337,149.548,162.831
0.442,46.614,1.960,1.960,141.233,149.349,162.869
0.443,46.825,1.973,1.973,141.142,149.164,162.908
0.444,47.013,1.988,1.988,141.067,148.995,162.948
0.445,47.176,2.006,2.006,141.011,148.848,162.991
0.447,47.315,2.025,2.025,140.974,148.723,163.037
0.448,47.433,2.045,2.045,140.952,148.617,163.085
0.449,47.534,2.064,2.064,140.943,148.528,163.133
0.450,47.622,2.084,2.084,140.945,148.456,163.181
0.451,47.697,2.101,2.101,140.954,148.397,163.228
0.452,47.763,2.117,2.117,140.969,148.350,163.273
0.453,47.821,2.130,2.130,140.985,148.314,163.314
0.455,47.871,2.139,2.139,141.001,148.286,163.351
0.456,47.911,2.144,2.144,141.015,148.264,163.383
0.457,47.944,2.146,2.146,141.023,148.247,163.410
0.458,47.969,2.146,2.146,141.027,148.234,163.431
0.459,47.989,2.145,2.145,141.028,148.223,163.448
0.460,48.006,2.145,2.145,141.027,148.213,163.461
0.461,48.021,2.146,2.146,141.026,148.202,163.471
0.463,48.035,2.149,2.149,141.025,148.190,163.480
0.464,48.052,2.157,2.157,141.025,148.175,163.486
