"T","Distance","Radius","FreeRadius","X","Y","Z"
0.000,0.000,1.870,2.030,105.674,147.595,84.516
0.009,0.152,1.927,2.087,105.687,147.444,84.511
0.017,0.303,1.988,2.148,105.700,147.294,84.507
0.026,0.449,2.051,2.212,105.712,147.148,84.504
0.034,0.590,2.116,2.277,105.723,147.007,84.505
0.043,0.724,2.179,2.340,105.733,146.874,84.508
0.051,0.848,2.239,2.399,105.741,146.750,84.517
0.060,0.962,2.293,2.453,105.748,146.637,84.530
0.068,1.064,2.339,2.503,105.753,146.537,84.550
0.077,1.153,2.376,2.507,105.755,146.452,84.577
0.085,1.231,2.402,2.477,105.755,146.383,84.611
0.094,1.298,2.417,2.451,105.752,146.329,84.651
0.103,1.358,2.424,2.439,105.748,146.287,84.695
0.111,1.413,2.424,2.436,105.742,146.257,84.740
0.120,1.463,2.419,2.439,105.736,146.236,84.784
0.128,1.508,2.411,2.447,105.729,146.222,84.826
0.137,1.546,2.401,2.458,105.723,146.214,84.863
0.145,1.577,2.392,2.467,105.717,146.209,84.893
0.154,1.599,2.385,2.474,105.712,146.206,84.914
0.162,1.610,2.381,2.476,105.708,146.203,84.924
0.171,1.615,2.381,2.473,105.705,146.200,84.926
0.179,1.622,2.382,2.466,105.702,146.196,84.922
0.188,1.632,2.383,2.456,105.697,146.189,84.915
0.197,1.646,2.385,2.443,105.691,146.181,84.907
0.205,1.662,2.386,2.427,105.681,146.169,84.901
0.214,1.682,2.385,2.410,105.668,146.154,84.901
0.222,1.710,2.380,2.391,105.649,146.134,84.907
0.231,1.748,2.372,2.373,105.625,146.110,84.925
0.239,1.800,2.355,2.355,105.594,146.081,84.954
0.248,1.864,2.337,2.337,105.557,146.047,84.993
0.256,1.938,2.319,2.319,105.512,146.009,85.038
0.265,2.020,2.300,2.300,105.460,145.969,85.088
0.274,2.109,2.278,2.278,105.400,145.927,85.139
0.282,2.202,2.251,2.254,105.333,145.884,85.187
0.291,2.299,2.221,2.226,105.258,145.841,85.230
0.299,2.399,2.188,2.193,105.175,145.799,85.265
0.308,2.502,2.151,2.152,105.083,145.759,85.288
0.316,2.609,2.105,2.105,104.983,145.721,85.298
0.325,2.722,2.051,2.051,104.875,145.685,85.297
0.333,2.841,1.996,1.996,104.762,145.652,85.288
0.342,2.964,1.941,1.941,104.643,145.622,85.275
0.350,3.090,1.889,1.889,104.521,145.594,85.259
0.359,3.218,1.844,1.844,104.396,145.570,85.245
0.368,3.346,1.808,1.808,104.270,145.548,85.236
0.376,3.473,1.787,1.786,104.145,145.529,85.235
0.385,3.599,1.774,1.775,104.020,145.512,85.245
0.393,3.724,1.735,1.748,103.898,145.499,85.268
0.402,3.850,1.693,1.704,103.778,145.488,85.303
0.410,3.979,1.652,1.660,103.657,145.481,85.348
0.419,4.110,1.612,1.619,103.536,145.476,85.399
0.427,4.245,1.573,1.581,103.413,145.473,85.454
0.436,4.384,1.536,1.552,103.287,145.474,85.511
0.444,4.526,1.502,1.530,103.157,145.477,85.568
0.453,4.671,1.471,1.511,103.022,145.482,85.621
0.462,4.821,1.443,1.496,102.880,145.490,85.669
0.470,4.975,1.420,1.470,102.731,145.501,85.709
0.479,5.134,1.403,1.442,102.576,145.513,85.742
0.487,5.297,1.393,1.430,102.416,145.528,85.769
0.496,5.464,1.391,1.429,102.252,145.544,85.793
0.504,5.633,1.398,1.438,102.085,145.560,85.814
0.513,5.804,1.414,1.459,101.917,145.578,85.834
0.521,5.975,1.438,1.489,101.748,145.596,85.853
0.530,6.145,1.472,1.529,101.580,145.614,85.875
0.538,6.314,1.515,1.575,101.413,145.632,85.899
0.547,6.480,1.565,1.627,101.250,145.649,85.927
0.556,6.643,1.622,1.684,101.092,145.666,85.959
0.564,6.801,1.683,1.744,100.939,145.682,85.995
0.573,6.953,1.747,1.807,100.793,145.698,86.034
0.581,7.098,1.812,1.871,100.655,145.714,86.077
0.590,7.234,1.877,1.934,100.527,145.730,86.122
0.598,7.362,1.939,1.996,100.410,145.746,86.170
0.607,7.479,1.997,2.054,100.306,145.762,86.220
0.615,7.585,2.048,2.108,100.215,145.779,86.273
0.624,7.680,2.093,2.158,100.138,145.796,86.326
0.632,7.765,2.130,2.192,100.076,145.813,86.381
0.641,7.841,2.160,2.210,100.027,145.829,86.436
0.650,7.908,2.183,2.227,99.990,145.844,86.490
0.658,7.967,2.202,2.254,99.964,145.856,86.542
0.667,8.020,2.215,2.284,99.949,145.866,86.592
0.675,8.067,2.224,2.302,99.944,145.872,86.639
0.684,8.110,2.229,2.302,99.947,145.874,86.681
0.692,8.149,2.231,2.291,99.958,145.872,86.718
0.701,8.186,2.232,2.274,99.975,145.864,86.750
0.709,8.220,2.234,2.252,99.994,145.851,86.776
0.718,8.251,2.230,2.229,100.009,145.833,86.796
0.726,8.278,2.208,2.208,100.015,145.811,86.810
0.735,8.307,2.192,2.192,100.005,145.785,86.819
0.744,8.350,2.186,2.186,99.975,145.755,86.823
0.752,8.415,2.192,2.192,99.919,145.722,86.821
0.761,8.510,2.218,2.219,99.831,145.685,86.814
0.769,8.641,2.213,2.265,99.707,145.646,86.802
0.778,8.812,2.113,2.283,99.542,145.605,86.785
0.786,9.017,2.010,2.190,99.342,145.561,86.764
0.795,9.250,1.909,2.087,99.115,145.517,86.740
0.803,9.501,1.814,1.995,98.869,145.473,86.713
0.812,9.765,1.734,1.912,98.611,145.428,86.685
0.821,10.032,1.673,1.848,98.349,145.385,86.656
0.829,10.296,1.635,1.805,98.090,145.343,86.628
0.838,10.548,1.618,1.783,97.843,145.304,86.601
0.846,10.780,1.608,1.780,97.614,145.268,86.577
0.855,10.988,1.554,1.792,97.410,145.234,86.555
0.863,11.172,1.499,1.813,97.231,145.201,86.534
0.872,11.334,1.475,1.840,97.074,145.163,86.512
0.880,11.479,1.472,1.869,96.938,145.119,86.487
0.889,11.613,1.493,1.898,96.821,145.063,86.457
0.897,11.741,1.540,1.927,96.721,144.992,86.419
0.906,11.873,1.613,1.955,96.635,144.903,86.373
0.915,12.018,1.725,1.984,96.562,144.792,86.316
0.923,12.184,1.835,2.017,96.500,144.655,86.245
0.932,12.377,1.900,2.059,96.448,144.490,86.160
0.940,12.598,1.943,2.113,96.403,144.298,86.061
0.949,12.842,2.000,2.183,96.365,144.084,85.950
0.957,13.107,2.088,2.272,96.333,143.849,85.829
0.966,13.391,2.209,2.384,96.306,143.599,85.699
0.974,13.689,2.353,2.515,96.283,143.335,85.563
0.983,13.997,2.511,2.677,96.264,143.061,85.422
0.991,14.313,2.687,2.838,96.246,142.781,85.277
1.000,14.633,2.879,2.939,96.229,142.498,85.131
