"T","Distance","Radius","FreeRadius","X","Y","Z"
0.000,0.000,1.500,1.500,143.164,160.365,204.116
0.003,0.048,1.509,1.520,143.148,160.378,204.160
0.007,0.097,1.519,1.540,143.132,160.391,204.204
0.010,0.146,1.529,1.561,143.116,160.402,204.248
0.014,0.194,1.540,1.584,143.100,160.412,204.293
0.017,0.244,1.551,1.607,143.085,160.419,204.340
0.021,0.294,1.563,1.631,143.070,160.424,204.387
0.024,0.345,1.575,1.655,143.057,160.425,204.437
0.027,0.398,1.588,1.681,143.044,160.421,204.488
0.031,0.453,1.602,1.711,143.032,160.414,204.541
0.034,0.511,1.616,1.745,143.022,160.401,204.597
0.038,0.573,1.628,1.770,143.012,160.382,204.655
0.041,0.640,1.635,1.774,143.005,160.357,204.717
0.045,0.711,1.635,1.755,142.999,160.327,204.781
0.048,0.786,1.632,1.725,142.997,160.290,204.847
0.051,0.866,1.627,1.701,142.999,160.249,204.915
0.055,0.949,1.624,1.692,143.006,160.203,204.983
0.058,1.035,1.623,1.691,143.019,160.154,205.053
0.062,1.124,1.625,1.690,143.039,160.101,205.122
0.065,1.217,1.631,1.684,143.068,160.045,205.191
0.068,1.314,1.637,1.676,143.105,159.987,205.259
0.072,1.415,1.645,1.671,143.153,159.928,205.325
0.075,1.521,1.650,1.672,143.212,159.867,205.389
0.079,1.633,1.647,1.680,143.282,159.806,205.451
0.082,1.751,1.630,1.698,143.363,159.745,205.511
0.086,1.871,1.601,1.726,143.448,159.683,205.568
0.089,1.991,1.568,1.759,143.534,159.620,205.624
0.092,2.108,1.541,1.795,143.615,159.556,205.679
0.096,2.219,1.528,1.831,143.686,159.491,205.734
0.099,2.322,1.538,1.863,143.743,159.424,205.789
0.103,2.418,1.578,1.889,143.780,159.356,205.845
0.106,2.510,1.642,1.905,143.794,159.286,205.903
0.110,2.604,1.709,1.910,143.778,159.214,205.962
0.113,2.712,1.761,1.898,143.728,159.140,206.023
0.116,2.846,1.786,1.873,143.640,159.063,206.088
0.120,3.010,1.783,1.837,143.512,158.985,206.155
0.123,3.203,1.750,1.796,143.351,158.905,206.224
0.127,3.419,1.700,1.755,143.163,158.825,206.294
0.130,3.651,1.652,1.720,142.956,158.746,206.364
0.134,3.894,1.626,1.698,142.735,158.669,206.431
0.137,4.142,1.627,1.691,142.509,158.595,206.496
0.140,4.386,1.652,1.701,142.282,158.525,206.556
0.144,4.621,1.696,1.727,142.063,158.461,206.612
0.147,4.840,1.751,1.765,141.858,158.402,206.660
0.151,5.036,1.803,1.809,141.673,158.351,206.702
0.154,5.202,1.844,1.853,141.516,158.309,206.734
0.158,5.333,1.870,1.888,141.391,158.275,206.757
0.161,5.432,1.885,1.908,141.296,158.251,206.771
0.164,5.503,1.892,1.908,141.228,158.234,206.778
0.168,5.548,1.892,1.896,141.184,158.226,206.778
0.171,5.572,1.890,1.889,141.160,158.225,206.773
0.175,5.585,1.888,1.899,141.154,158.231,206.764
0.178,5.604,1.887,1.918,141.161,158.244,206.751
0.182,5.633,1.887,1.932,141.180,158.263,206.737
0.185,5.672,1.889,1.928,141.205,158.287,206.722
0.188,5.716,1.886,1.908,141.235,158.316,206.708
0.192,5.764,1.873,1.877,141.266,158.350,206.695
0.195,5.813,1.844,1.839,141.295,158.388,206.684
0.199,5.861,1.805,1.801,141.320,158.428,206.676
0.202,5.904,1.766,1.766,141.342,158.466,206.671
0.205,5.942,1.732,1.736,141.358,158.499,206.667
0.209,5.969,1.708,1.713,141.369,158.524,206.666
0.212,5.984,1.696,1.695,141.374,158.539,206.666
0.216,5.987,1.697,1.685,141.371,158.539,206.667
0.219,6.007,1.714,1.697,141.361,158.522,206.669
0.223,6.049,1.747,1.751,141.342,158.485,206.672
0.226,6.116,1.791,1.847,141.313,158.425,206.676
0.229,6.210,1.824,1.942,141.275,158.339,206.680
0.233,6.336,1.820,1.982,141.225,158.223,206.685
0.236,6.491,1.767,1.938,141.166,158.080,206.689
0.240,6.669,1.686,1.844,141.099,157.915,206.693
0.243,6.865,1.604,1.744,141.025,157.734,206.696
0.247,7.071,1.537,1.668,140.948,157.543,206.699
0.250,7.283,1.488,1.620,140.868,157.346,206.702
0.253,7.495,1.455,1.597,140.787,157.150,206.703
0.257,7.700,1.435,1.592,140.708,156.961,206.704
0.260,7.894,1.424,1.584,140.632,156.783,206.703
0.264,8.069,1.416,1.551,140.562,156.623,206.701
0.267,8.220,1.405,1.488,140.499,156.485,206.697
0.271,8.342,1.389,1.416,140.444,156.377,206.692
0.274,8.433,1.367,1.358,140.400,156.298,206.685
0.277,8.497,1.341,1.325,140.364,156.244,206.677
0.281,8.540,1.318,1.312,140.337,156.213,206.667
0.284,8.567,1.308,1.311,140.316,156.199,206.656
0.288,8.586,1.313,1.317,140.302,156.198,206.644
0.291,8.604,1.327,1.329,140.292,156.205,206.631
0.295,8.622,1.347,1.345,140.287,156.217,206.617
0.298,8.641,1.366,1.363,140.286,156.228,206.603
0.301,8.658,1.381,1.380,140.287,156.235,206.588
0.305,8.673,1.388,1.391,140.289,156.233,206.572
0.308,8.695,1.386,1.396,140.292,156.218,206.556
0.312,8.730,1.378,1.394,140.294,156.187,206.541
0.315,8.779,1.366,1.386,140.296,156.141,206.524
0.318,8.840,1.353,1.372,140.297,156.082,206.507
0.322,8.912,1.339,1.356,140.297,156.013,206.487
0.325,8.994,1.326,1.338,140.295,155.934,206.466
0.329,9.084,1.315,1.322,140.291,155.847,206.443
0.332,9.180,1.307,1.308,140.285,155.755,206.416
0.336,9.280,1.301,1.298,140.276,155.660,206.386
0.339,9.384,1.298,1.293,140.265,155.562,206.353
0.342,9.490,1.299,1.297,140.250,155.465,206.315
0.346,9.596,1.304,1.312,140.231,155.369,206.272
0.349,9.703,1.311,1.332,140.208,155.276,206.224
0.353,9.810,1.318,1.347,140.183,155.187,206.171
0.356,9.917,1.323,1.349,140.155,155.101,206.114
0.360,10.026,1.326,1.341,140.126,155.017,206.051
0.363,10.136,1.329,1.331,140.096,154.934,205.985
0.366,10.247,1.333,1.327,140.068,154.853,205.914
0.370,10.360,1.339,1.331,140.040,154.772,205.840
0.373,10.475,1.348,1.346,140.015,154.692,205.762
0.377,10.592,1.360,1.373,139.993,154.611,205.680
0.380,10.711,1.373,1.405,139.976,154.529,205.595
0.384,10.832,1.386,1.437,139.964,154.446,205.508
0.387,10.957,1.398,1.462,139.957,154.361,205.417
0.390,11.083,1.410,1.481,139.957,154.275,205.325
0.394,11.209,1.423,1.492,139.962,154.189,205.232
0.397,11.334,1.438,1.498,139.971,154.105,205.140
0.401,11.456,1.453,1.503,139.985,154.024,205.050
0.404,11.573,1.470,1.513,140.002,153.948,204.963
0.408,11.683,1.486,1.534,140.021,153.878,204.880
0.411,11.785,1.500,1.562,140.042,153.815,204.803
0.414,11.877,1.511,1.595,140.065,153.761,204.733
0.418,11.956,1.518,1.628,140.089,153.717,204.671
0.421,12.022,1.519,1.661,140.112,153.685,204.618
0.425,12.074,1.514,1.691,140.135,153.666,204.576
0.428,12.113,1.502,1.718,140.157,153.659,204.545
0.432,12.142,1.486,1.741,140.176,153.660,204.524
0.435,12.163,1.470,1.760,140.193,153.667,204.512
0.438,12.178,1.456,1.773,140.206,153.674,204.511
0.442,12.190,1.448,1.780,140.215,153.679,204.517
0.445,12.206,1.450,1.781,140.219,153.678,204.533
0.449,12.231,1.462,1.775,140.217,153.667,204.555
0.452,12.271,1.481,1.763,140.208,153.642,204.585
0.455,12.328,1.505,1.743,140.193,153.601,204.621
0.459,12.408,1.528,1.716,140.169,153.538,204.664
0.462,12.513,1.550,1.685,140.136,153.450,204.712
0.466,12.644,1.568,1.653,140.095,153.337,204.764
0.469,12.799,1.580,1.623,140.047,153.200,204.820
0.473,12.974,1.588,1.601,139.996,153.044,204.878
0.476,13.164,1.594,1.589,139.942,152.871,204.936
0.479,13.365,1.603,1.595,139.890,152.686,204.994
0.483,13.574,1.627,1.623,139.840,152.491,205.050
0.486,13.786,1.677,1.680,139.795,152.291,205.103
0.490,13.998,1.751,1.762,139.759,152.087,205.151
0.493,14.206,1.832,1.849,139.732,151.885,205.193
0.497,14.407,1.902,1.922,139.718,151.688,205.227
0.500,14.599,1.954,1.973,139.719,151.498,205.253
0.503,14.779,1.989,2.004,139.736,151.319,205.270
0.507,14.949,2.012,2.018,139.766,151.152,205.277
0.510,15.110,2.027,2.024,139.806,150.996,205.275
0.514,15.260,2.038,2.034,139.851,150.853,205.266
0.517,15.400,2.050,2.059,139.899,150.722,205.249
0.521,15.529,2.067,2.101,139.944,150.605,205.225
0.524,15.645,2.092,2.155,139.984,150.500,205.194
0.527,15.748,2.128,2.216,140.014,150.408,205.159
0.531,15.837,2.170,2.274,140.031,150.331,205.118
0.534,15.915,2.205,2.318,140.031,150.267,205.073
0.538,15.988,2.223,2.338,140.010,150.217,205.025
0.541,16.065,2.222,2.337,139.965,150.182,204.973
0.545,16.156,2.204,2.327,139.894,150.159,204.920
0.548,16.265,2.172,2.320,139.800,150.146,204.867
0.551,16.392,2.133,2.317,139.683,150.141,204.817
0.555,16.538,2.093,2.320,139.545,150.141,204.770
0.558,16.703,2.061,2.325,139.386,150.144,204.729
0.562,16.885,2.047,2.337,139.207,150.147,204.695
0.565,17.083,2.066,2.357,139.010,150.147,204.671
0.568,17.299,2.125,2.386,138.795,150.142,204.657
0.572,17.530,2.209,2.416,138.564,150.129,204.657
0.575,17.778,2.288,2.432,138.317,150.107,204.671
0.579,18.043,2.341,2.424,138.057,150.072,204.701
0.582,18.323,2.375,2.408,137.785,150.024,204.747
0.586,18.613,2.407,2.408,137.506,149.966,204.804
0.589,18.908,2.453,2.443,137.225,149.900,204.868
0.592,19.204,2.517,2.510,136.947,149.827,204.937
0.596,19.494,2.601,2.601,136.677,149.750,205.006
0.599,19.772,2.704,2.707,136.418,149.670,205.071
0.603,20.033,2.824,2.825,136.176,149.591,205.129
0.606,20.271,2.955,2.955,135.956,149.514,205.175
0.610,20.481,3.090,3.089,135.761,149.440,205.207
0.613,20.659,3.194,3.194,135.597,149.373,205.220
0.616,20.801,3.231,3.231,135.469,149.315,205.211
0.620,20.910,3.183,3.183,135.377,149.265,205.178
0.623,20.999,3.094,3.094,135.318,149.225,205.125
0.627,21.082,3.022,3.022,135.288,149.194,205.054
0.630,21.169,3.005,3.005,135.283,149.172,204.970
0.634,21.266,3.033,3.033,135.297,149.158,204.875
0.637,21.372,3.084,3.084,135.328,149.152,204.774
0.640,21.485,3.145,3.145,135.371,149.154,204.669
0.644,21.602,3.210,3.210,135.421,149.162,204.564
0.647,21.717,3.276,3.276,135.474,149.178,204.463
0.651,21.828,3.336,3.336,135.526,149.201,204.368
0.654,21.929,3.378,3.378,135.573,149.230,204.284
0.658,22.017,3.390,3.390,135.612,149.264,204.212
0.661,22.091,3.370,3.370,135.641,149.301,204.155
0.664,22.150,3.331,3.331,135.662,149.335,204.112
0.668,22.192,3.293,3.293,135.674,149.364,204.083
0.671,22.216,3.267,3.267,135.678,149.384,204.070
0.675,22.224,3.265,3.265,135.674,149.390,204.072
0.678,22.248,3.295,3.295,135.662,149.380,204.090
0.682,22.298,3.347,3.347,135.643,149.349,204.124
0.685,22.378,3.391,3.391,135.617,149.294,204.175
0.688,22.491,3.393,3.393,135.583,149.210,204.243
0.692,22.640,3.343,3.343,135.542,149.095,204.329
0.695,22.828,3.261,3.261,135.495,148.944,204.432
0.699,23.051,3.166,3.166,135.443,148.763,204.550
0.702,23.300,3.072,3.072,135.386,148.558,204.679
0.705,23.569,2.984,2.984,135.328,148.334,204.816
0.709,23.850,2.907,2.907,135.268,148.098,204.957
0.712,24.136,2.847,2.847,135.209,147.857,205.098
0.716,24.419,2.814,2.814,135.151,147.616,205.237
0.719,24.693,2.814,2.814,135.098,147.383,205.369
0.723,24.948,2.833,2.833,135.049,147.163,205.490
0.726,25.179,2.841,2.841,135.006,146.963,205.598
0.729,25.378,2.810,2.810,134.972,146.790,205.688
0.733,25.537,2.744,2.744,134.946,146.649,205.757
0.736,25.657,2.670,2.670,134.930,146.540,205.805
0.740,25.742,2.613,2.613,134.922,146.461,205.836
0.743,25.799,2.581,2.581,134.920,146.407,205.851
0.747,25.831,2.570,2.570,134.925,146.374,205.854
0.750,25.849,2.576,2.576,134.933,146.360,205.848
0.753,25.867,2.593,2.593,134.946,146.360,205.834
0.757,25.892,2.615,2.615,134.960,146.372,205.818
0.760,25.922,2.638,2.638,134.976,146.390,205.800
0.764,25.953,2.663,2.663,134.991,146.411,205.784
0.767,25.981,2.694,2.694,135.006,146.433,205.773
0.771,26.003,2.734,2.734,135.018,146.450,205.769
0.774,26.018,2.771,2.771,135.027,146.462,205.773
0.777,26.033,2.789,2.789,135.034,146.469,205.785
0.781,26.051,2.776,2.776,135.038,146.472,205.802
0.784,26.071,2.743,2.743,135.040,146.472,205.822
0.788,26.094,2.707,2.707,135.040,146.469,205.844
0.791,26.117,2.686,2.686,135.039,146.466,205.867
0.795,26.138,2.675,2.675,135.037,146.462,205.888
0.798,26.157,2.669,2.669,135.033,146.459,205.906
0.801,26.171,2.662,2.662,135.029,146.457,205.920
0.805,26.179,2.655,2.655,135.025,146.458,205.926
0.808,26.186,2.652,2.652,135.020,146.462,205.925
0.812,26.198,2.656,2.656,135.016,146.470,205.916
0.815,26.216,2.664,2.664,135.013,146.479,205.901
0.818,26.233,2.674,2.674,135.013,146.486,205.886
0.822,26.246,2.682,2.682,135.015,146.490,205.874
0.825,26.255,2.688,2.688,135.023,146.487,205.869
0.829,26.273,2.692,2.692,135.035,146.476,205.875
0.832,26.310,2.693,2.693,135.054,146.453,205.896
0.836,26.371,2.682,2.682,135.080,146.415,205.937
0.839,26.461,2.651,2.651,135.115,146.362,206.000
0.842,26.585,2.596,2.596,135.159,146.289,206.091
0.846,26.749,2.520,2.520,135.214,146.194,206.212
0.849,26.955,2.426,2.426,135.279,146.076,206.368
0.853,27.198,2.323,2.323,135.355,145.937,206.553
0.856,27.471,2.219,2.219,135.438,145.780,206.760
0.860,27.765,2.126,2.126,135.526,145.608,206.982
0.863,28.074,2.055,2.055,135.618,145.426,207.214
0.866,28.389,2.013,2.013,135.712,145.236,207.448
0.870,28.703,2.010,2.010,135.805,145.042,207.677
0.873,29.009,2.043,2.043,135.895,144.847,207.894
0.877,29.299,2.097,2.097,135.981,144.656,208.093
0.880,29.565,2.155,2.155,136.060,144.470,208.267
0.884,29.802,2.196,2.196,136.131,144.294,208.410
0.887,30.005,2.194,2.194,136.191,144.131,208.514
0.890,30.176,2.125,2.125,136.241,143.980,208.578
0.894,30.323,1.996,1.996,136.280,143.840,208.603
0.897,30.458,1.849,1.849,136.308,143.710,208.590
0.901,30.593,1.728,1.728,136.327,143.586,208.540
0.904,30.739,1.655,1.655,136.338,143.467,208.455
0.908,30.907,1.628,1.628,136.339,143.351,208.334
0.911,31.099,1.644,1.644,136.332,143.236,208.180
0.914,31.320,1.691,1.691,136.318,143.120,207.993
0.918,31.570,1.742,1.742,136.296,143.002,207.773
0.921,31.850,1.774,1.774,136.268,142.879,207.523
0.925,32.160,1.785,1.785,136.233,142.749,207.244
0.928,32.498,1.785,1.785,136.192,142.612,206.938
0.932,32.855,1.787,1.787,136.148,142.471,206.612
0.935,33.226,1.806,1.806,136.102,142.327,206.273
0.938,33.604,1.853,1.853,136.055,142.183,205.928
0.942,33.981,1.941,1.941,136.008,142.040,205.582
0.945,34.351,2.072,2.072,135.964,141.901,205.242
0.949,34.707,2.240,2.240,135.923,141.768,204.914
0.952,35.042,2.439,2.439,135.888,141.643,204.606
0.955,35.348,2.638,2.638,135.860,141.527,204.323
0.959,35.620,2.796,2.796,135.840,141.424,204.073
0.962,35.850,2.878,2.878,135.830,141.335,203.861
0.966,36.035,2.897,2.897,135.831,141.262,203.691
0.969,36.180,2.889,2.889,135.841,141.202,203.559
0.973,36.289,2.888,2.888,135.861,141.155,203.463
0.976,36.369,2.900,2.900,135.888,141.119,203.397
0.979,36.426,2.919,2.919,135.922,141.094,203.359
0.983,36.472,2.943,2.943,135.962,141.076,203.344
0.986,36.519,2.966,2.966,136.007,141.066,203.348
0.990,36.572,2.979,2.979,136.056,141.061,203.368
0.993,36.633,2.979,2.979,136.108,141.061,203.399
0.997,36.699,2.968,2.968,136.162,141.064,203.438
1.000,36.769,2.952,2.952,136.217,141.067,203.481
