"T","Distance","Radius","FreeRadius","X","Y","Z"
0.000,0.000,1.815,1.815,131.566,173.780,131.596
0.002,0.173,1.883,1.883,131.706,173.794,131.696
0.003,0.344,1.951,1.951,131.845,173.809,131.795
0.005,0.511,2.018,2.018,131.980,173.823,131.892
0.006,0.672,2.083,2.083,132.111,173.837,131.985
0.008,0.824,2.145,2.145,132.235,173.851,132.073
0.009,0.967,2.205,2.205,132.351,173.864,132.155
0.011,1.098,2.262,2.262,132.456,173.876,132.231
0.013,1.214,2.315,2.315,132.551,173.888,132.298
0.014,1.314,2.363,2.363,132.632,173.898,132.355
0.016,1.396,2.405,2.405,132.698,173.908,132.402
0.017,1.461,2.442,2.442,132.751,173.917,132.439
0.019,1.510,2.472,2.472,132.791,173.927,132.465
0.021,1.546,2.495,2.495,132.821,173.937,132.483
0.022,1.571,2.511,2.511,132.842,173.950,132.491
0.024,1.592,2.520,2.520,132.856,173.965,132.492
0.025,1.613,2.524,2.524,132.865,173.983,132.485
0.027,1.640,2.523,2.523,132.870,174.005,132.471
0.028,1.674,2.518,2.518,132.875,174.032,132.452
0.030,1.716,2.510,2.510,132.879,174.065,132.426
0.032,1.765,2.500,2.500,132.885,174.104,132.396
0.033,1.822,2.490,2.490,132.892,174.149,132.362
0.035,1.884,2.479,2.479,132.900,174.199,132.326
0.036,1.952,2.469,2.469,132.909,174.254,132.288
0.038,2.024,2.459,2.459,132.920,174.314,132.249
0.039,2.099,2.452,2.452,132.931,174.378,132.211
0.041,2.178,2.447,2.447,132.944,174.447,132.174
0.043,2.260,2.444,2.444,132.958,174.519,132.140
0.044,2.343,2.444,2.444,132.972,174.595,132.110
0.046,2.428,2.446,2.446,132.987,174.674,132.084
0.047,2.513,2.449,2.449,133.003,174.756,132.063
0.049,2.599,2.452,2.452,133.018,174.839,132.047
0.051,2.684,2.456,2.456,133.032,174.922,132.037
0.052,2.768,2.459,2.459,133.044,175.005,132.033
0.054,2.850,2.462,2.462,133.055,175.087,132.035
0.055,2.930,2.464,2.464,133.062,175.166,132.045
0.057,3.008,2.466,2.466,133.066,175.242,132.062
0.058,3.084,2.468,2.468,133.065,175.313,132.086
0.060,3.158,2.469,2.469,133.061,175.380,132.118
0.062,3.233,2.469,2.469,133.053,175.443,132.158
0.063,3.310,2.468,2.468,133.044,175.504,132.205
0.065,3.392,2.463,2.463,133.036,175.567,132.257
0.066,3.479,2.453,2.453,133.031,175.633,132.314
0.068,3.573,2.437,2.437,133.032,175.704,132.375
0.070,3.675,2.413,2.413,133.040,175.783,132.439
0.071,3.788,2.379,2.379,133.058,175.872,132.505
0.073,3.913,2.335,2.335,133.087,175.974,132.572
0.074,4.055,2.283,2.283,133.131,176.091,132.640
0.076,4.213,2.226,2.226,133.190,176.221,132.707
0.077,4.384,2.167,2.167,133.263,176.362,132.771
0.079,4.565,2.109,2.109,133.351,176.509,132.828
0.081,4.753,2.053,2.053,133.453,176.659,132.877
0.082,4.945,2.004,2.004,133.569,176.807,132.915
0.084,5.139,1.959,1.959,133.699,176.950,132.941
0.085,5.335,1.918,1.918,133.841,177.084,132.950
0.087,5.532,1.879,1.879,133.997,177.204,132.942
0.088,5.732,1.841,1.841,134.166,177.308,132.913
0.090,5.937,1.803,1.803,134.346,177.392,132.863
0.092,6.148,1.763,1.763,134.535,177.457,132.795
0.093,6.364,1.721,1.721,134.727,177.506,132.711
0.095,6.582,1.680,1.680,134.920,177.539,132.615
0.096,6.799,1.640,1.640,135.109,177.559,132.511
0.098,7.011,1.605,1.605,135.291,177.568,132.401
0.100,7.215,1.576,1.576,135.462,177.567,132.290
0.101,7.406,1.554,1.554,135.617,177.557,132.180
0.103,7.579,1.542,1.542,135.754,177.541,132.075
0.104,7.730,1.538,1.538,135.868,177.520,131.978
0.106,7.862,1.540,1.540,135.962,177.496,131.889
0.107,7.978,1.547,1.547,136.040,177.468,131.807
0.109,8.082,1.557,1.557,136.106,177.437,131.733
0.111,8.176,1.569,1.569,136.164,177.406,131.665
0.112,8.264,1.581,1.581,136.218,177.373,131.603
0.114,8.349,1.592,1.592,136.271,177.341,131.547
0.115,8.433,1.602,1.602,136.329,177.309,131.495
0.117,8.520,1.612,1.612,136.395,177.278,131.447
0.118,8.614,1.620,1.620,136.474,177.250,131.403
0.120,8.717,1.627,1.627,136.564,177.225,131.362
0.122,8.825,1.632,1.632,136.664,177.201,131.326
0.123,8.938,1.635,1.635,136.770,177.178,131.295
0.125,9.052,1.637,1.637,136.879,177.156,131.269
0.126,9.165,1.638,1.638,136.987,177.134,131.250
0.128,9.273,1.639,1.639,137.093,177.112,131.238
0.130,9.375,1.639,1.639,137.192,177.089,131.233
0.131,9.468,1.639,1.639,137.281,177.064,131.237
0.133,9.550,1.639,1.639,137.358,177.038,131.249
0.134,9.622,1.639,1.639,137.421,177.009,131.271
0.136,9.691,1.638,1.638,137.476,176.981,131.300
0.137,9.758,1.635,1.635,137.528,176.954,131.334
0.139,9.828,1.630,1.630,137.583,176.932,131.371
0.141,9.904,1.622,1.622,137.646,176.916,131.410
0.142,9.991,1.610,1.610,137.723,176.908,131.447
0.144,10.093,1.596,1.596,137.820,176.910,131.482
0.145,10.220,1.582,1.582,137.942,176.925,131.513
0.147,10.377,1.574,1.574,138.095,176.955,131.536
0.148,10.570,1.574,1.574,138.282,177.000,131.552
0.150,10.793,1.585,1.585,138.497,177.058,131.559
0.152,11.038,1.612,1.612,138.732,177.127,131.561
0.153,11.294,1.656,1.656,138.977,177.202,131.556
0.155,11.553,1.713,1.713,139.224,177.279,131.548
0.156,11.804,1.776,1.776,139.462,177.356,131.536
0.158,12.038,1.840,1.840,139.684,177.428,131.523
0.160,12.245,1.901,1.901,139.880,177.492,131.509
0.161,12.415,1.951,1.951,140.041,177.545,131.495
0.163,12.539,1.986,1.986,140.159,177.583,131.482
0.164,12.617,2.005,2.005,140.234,177.606,131.473
0.166,12.658,2.012,2.012,140.273,177.618,131.467
0.167,12.670,2.009,2.009,140.283,177.621,131.466
0.169,12.681,1.999,1.999,140.274,177.618,131.472
0.171,12.708,1.985,1.985,140.251,177.613,131.484
0.172,12.743,1.969,1.969,140.222,177.609,131.505
0.174,12.784,1.953,1.953,140.196,177.608,131.536
0.175,12.829,1.938,1.938,140.179,177.615,131.577
0.177,12.884,1.926,1.926,140.178,177.631,131.630
0.179,12.957,1.918,1.918,140.199,177.658,131.695
0.180,13.049,1.913,1.913,140.238,177.698,131.768
0.182,13.158,1.913,1.913,140.295,177.748,131.846
0.183,13.282,1.919,1.919,140.365,177.809,131.928
0.185,13.418,1.931,1.931,140.447,177.881,132.008
0.186,13.563,1.948,1.948,140.538,177.963,132.086
0.188,13.714,1.969,1.969,140.636,178.055,132.156
0.190,13.871,1.995,1.995,140.738,178.156,132.218
0.191,14.030,2.024,2.024,140.842,178.267,132.266
0.193,14.191,2.057,2.057,140.946,178.386,132.300
0.194,14.355,2.093,2.093,141.048,178.512,132.318
0.196,14.521,2.132,2.132,141.149,178.643,132.323
0.197,14.688,2.176,2.176,141.247,178.779,132.316
0.199,14.856,2.223,2.223,141.342,178.916,132.297
0.201,15.024,2.276,2.276,141.433,179.054,132.268
0.202,15.191,2.333,2.333,141.520,179.191,132.230
0.204,15.355,2.395,2.395,141.602,179.325,132.183
0.205,15.514,2.459,2.459,141.679,179.454,132.129
0.207,15.668,2.523,2.523,141.749,179.577,132.069
0.209,15.816,2.584,2.584,141.813,179.694,132.004
0.210,15.958,2.640,2.640,141.872,179.803,131.936
0.212,16.095,2.686,2.686,141.925,179.907,131.864
0.213,16.227,2.722,2.722,141.974,180.004,131.790
0.215,16.354,2.748,2.748,142.020,180.096,131.715
0.216,16.475,2.765,2.765,142.062,180.181,131.640
0.218,16.591,2.775,2.775,142.101,180.261,131.566
0.220,16.701,2.780,2.780,142.138,180.336,131.494
0.221,16.804,2.783,2.783,142.174,180.405,131.426
0.223,16.901,2.784,2.784,142.207,180.470,131.362
0.224,16.988,2.786,2.786,142.238,180.530,131.306
0.226,17.064,2.789,2.789,142.264,180.586,131.262
0.227,17.127,2.793,2.793,142.283,180.638,131.232
0.229,17.180,2.799,2.799,142.296,180.687,131.220
0.231,17.227,2.808,2.808,142.299,180.734,131.229
0.232,17.282,2.820,2.820,142.293,180.778,131.261
0.234,17.358,2.836,2.836,142.274,180.821,131.321
0.235,17.462,2.851,2.851,142.243,180.862,131.411
0.237,17.598,2.862,2.862,142.198,180.903,131.532
0.239,17.761,2.866,2.866,142.141,180.943,131.680
0.240,17.945,2.858,2.858,142.073,180.983,131.846
0.242,18.142,2.834,2.834,141.997,181.023,132.023
0.243,18.347,2.790,2.790,141.914,181.065,132.206
0.245,18.552,2.729,2.729,141.825,181.107,132.386
0.246,18.750,2.657,2.657,141.734,181.151,132.556
0.248,18.936,2.580,2.580,141.641,181.197,132.710
0.250,19.103,2.505,2.505,141.548,181.246,132.840
0.251,19.247,2.439,2.439,141.457,181.297,132.940
0.253,19.373,2.388,2.388,141.371,181.350,133.014
0.254,19.485,2.355,2.355,141.289,181.406,133.068
0.256,19.589,2.336,2.336,141.214,181.463,133.110
0.258,19.687,2.325,2.325,141.146,181.522,133.148
0.259,19.780,2.314,2.314,141.088,181.582,133.190
0.261,19.873,2.299,2.299,141.040,181.642,133.243
0.262,19.973,2.273,2.273,141.004,181.703,133.314
0.264,20.090,2.231,2.231,140.981,181.763,133.411
0.265,20.234,2.173,2.173,140.973,181.823,133.542
0.267,20.410,2.106,2.106,140.978,181.882,133.707
0.269,20.614,2.036,2.036,140.995,181.943,133.902
0.270,20.842,1.966,1.966,141.022,182.007,134.119
0.272,21.087,1.902,1.902,141.054,182.076,134.352
0.273,21.344,1.850,1.850,141.090,182.151,134.594
0.275,21.607,1.812,1.812,141.127,182.234,134.841
0.276,21.870,1.788,1.788,141.162,182.327,135.085
0.278,22.128,1.776,1.776,141.193,182.430,135.320
0.280,22.378,1.777,1.777,141.217,182.547,135.539
0.281,22.617,1.787,1.787,141.232,182.677,135.739
0.283,22.844,1.808,1.808,141.239,182.817,135.917
0.284,23.060,1.838,1.838,141.240,182.965,136.075
0.286,23.264,1.873,1.873,141.236,183.116,136.213
0.288,23.456,1.912,1.912,141.228,183.267,136.330
0.289,23.633,1.952,1.952,141.218,183.415,136.426
0.291,23.795,1.989,1.989,141.206,183.557,136.503
0.292,23.939,2.021,2.021,141.195,183.690,136.559
0.294,24.063,2.045,2.045,141.185,183.809,136.594
0.295,24.168,2.060,2.060,141.178,183.912,136.610
0.297,24.257,2.068,2.068,141.172,184.001,136.608
0.299,24.336,2.069,2.069,141.166,184.077,136.591
0.300,24.410,2.064,2.064,141.159,184.145,136.561
0.302,24.484,2.054,2.054,141.148,184.207,136.521
0.303,24.561,2.040,2.040,141.132,184.265,136.474
0.305,24.642,2.023,2.023,141.110,184.323,136.422
0.306,24.728,2.004,2.004,141.078,184.383,136.369
0.308,24.822,1.983,1.983,141.037,184.449,136.316
0.310,24.925,1.960,1.960,140.984,184.522,136.267
0.311,25.038,1.936,1.936,140.920,184.604,136.222
0.313,25.160,1.913,1.913,140.847,184.694,136.183
0.314,25.289,1.890,1.890,140.769,184.790,136.150
0.316,25.421,1.869,1.869,140.687,184.890,136.123
0.318,25.555,1.850,1.850,140.604,184.994,136.103
0.319,25.689,1.836,1.836,140.524,185.100,136.090
0.321,25.819,1.826,1.826,140.448,185.206,136.085
0.322,25.945,1.823,1.823,140.380,185.312,136.087
0.324,26.064,1.828,1.828,140.321,185.415,136.099
0.325,26.177,1.839,1.839,140.274,185.515,136.118
0.327,26.285,1.854,1.854,140.236,185.614,136.141
0.329,26.390,1.870,1.870,140.202,185.710,136.164
0.330,26.493,1.884,1.884,140.171,185.807,136.182
0.332,26.595,1.893,1.893,140.140,185.904,136.192
0.333,26.700,1.893,1.893,140.105,186.002,136.190
0.335,26.810,1.884,1.884,140.063,186.103,136.171
0.336,26.933,1.869,1.869,140.011,186.207,136.131
0.338,27.075,1.854,1.854,139.946,186.314,136.066
0.340,27.241,1.844,1.844,139.866,186.427,135.974
0.341,27.428,1.844,1.844,139.774,186.544,135.859
0.343,27.631,1.860,1.860,139.676,186.666,135.730
0.344,27.842,1.897,1.897,139.578,186.793,135.593
0.346,28.053,1.953,1.953,139.484,186.923,135.457
0.348,28.257,2.021,2.021,139.399,187.059,135.330
0.349,28.448,2.095,2.095,139.330,187.198,135.219
0.351,28.623,2.167,2.167,139.280,187.341,135.131
0.352,28.782,2.232,2.232,139.257,187.488,135.075
0.354,28.934,2.281,2.281,139.264,187.639,135.058
0.355,29.092,2.312,2.312,139.301,187.791,135.079
0.357,29.265,2.328,2.328,139.362,187.944,135.132
0.359,29.451,2.333,2.333,139.441,188.093,135.209
0.360,29.646,2.332,2.331,139.534,188.237,135.303
0.362,29.845,2.328,2.327,139.633,188.373,135.407
0.363,30.039,2.325,2.325,139.734,188.499,135.515
0.365,30.221,2.329,2.329,139.831,188.613,135.620
0.367,30.382,2.339,2.339,139.918,188.711,135.714
0.368,30.514,2.353,2.354,139.989,188.791,135.790
0.370,30.612,2.372,2.372,140.043,188.853,135.845
0.371,30.683,2.394,2.394,140.081,188.900,135.881
0.373,30.731,2.418,2.418,140.108,188.935,135.900
0.374,30.764,2.443,2.442,140.126,188.962,135.905
0.376,30.791,2.467,2.467,140.141,188.985,135.899
0.378,30.820,2.491,2.489,140.154,189.005,135.883
0.379,30.856,2.511,2.510,140.170,189.028,135.862
0.381,30.900,2.528,2.526,140.192,189.057,135.836
0.382,30.956,2.539,2.538,140.224,189.094,135.810
0.384,31.027,2.543,2.543,140.268,189.144,135.784
0.385,31.113,2.540,2.542,140.325,189.204,135.759
0.387,31.213,2.532,2.535,140.392,189.273,135.733
0.389,31.324,2.519,2.524,140.467,189.349,135.705
0.390,31.444,2.504,2.510,140.550,189.431,135.674
0.392,31.573,2.490,2.495,140.639,189.516,135.638
0.393,31.708,2.477,2.479,140.732,189.604,135.596
0.395,31.847,2.469,2.464,140.829,189.692,135.547
0.397,31.989,2.464,2.452,140.926,189.778,135.490
0.398,32.133,2.461,2.442,141.024,189.861,135.424
0.400,32.279,2.459,2.436,141.120,189.941,135.348
0.401,32.427,2.456,2.435,141.216,190.016,135.265
0.403,32.576,2.450,2.438,141.311,190.088,135.176
0.404,32.725,2.441,2.446,141.406,190.156,135.083
0.406,32.874,2.426,2.460,141.499,190.221,134.986
0.408,33.023,2.409,2.479,141.591,190.283,134.887
0.409,33.169,2.390,2.502,141.683,190.341,134.789
0.411,33.313,2.372,2.528,141.773,190.396,134.691
0.412,33.453,2.357,2.556,141.862,190.448,134.596
0.414,33.590,2.347,2.585,141.950,190.499,134.505
0.415,33.722,2.343,2.614,142.035,190.553,134.419
0.417,33.853,2.349,2.645,142.117,190.615,134.338
0.419,33.983,2.368,2.681,142.195,190.689,134.264
0.420,34.117,2.404,2.723,142.267,190.780,134.197
0.422,34.260,2.460,2.775,142.334,190.891,134.139
0.423,34.417,2.540,2.838,142.393,191.029,134.089
0.425,34.597,2.647,2.915,142.444,191.197,134.049
0.427,34.806,2.780,3.006,142.487,191.399,134.020
0.428,35.048,2.929,3.107,142.520,191.638,134.002
0.430,35.317,3.087,3.213,142.545,191.906,133.994
0.431,35.604,3.246,3.321,142.562,192.192,133.993
0.433,35.900,3.396,3.428,142.572,192.488,133.999
0.434,36.194,3.530,3.528,142.577,192.782,134.009
0.436,36.478,3.641,3.620,142.577,193.065,134.021
0.438,36.740,3.731,3.702,142.574,193.327,134.033
0.439,36.971,3.803,3.774,142.568,193.558,134.045
0.441,37.162,3.860,3.838,142.562,193.748,134.053
0.442,37.302,3.905,3.893,142.554,193.888,134.057
0.444,37.394,3.942,3.939,142.547,193.980,134.055
0.445,37.445,3.973,3.977,142.541,194.031,134.051
0.447,37.464,3.999,4.007,142.536,194.047,134.043
0.449,37.479,4.022,4.029,142.532,194.036,134.034
0.450,37.511,4.039,4.046,142.531,194.005,134.025
0.452,37.556,4.053,4.057,142.531,193.961,134.015
0.453,37.607,4.062,4.063,142.535,193.911,134.007
0.455,37.657,4.066,4.066,142.542,193.862,134.001
0.457,37.699,4.067,4.065,142.553,193.821,133.999
0.458,37.732,4.064,4.062,142.568,193.792,134.000
0.460,37.760,4.059,4.057,142.590,193.777,134.004
0.461,37.791,4.053,4.051,142.621,193.775,134.011
0.463,37.835,4.046,4.045,142.662,193.787,134.020
0.464,37.895,4.040,4.040,142.715,193.815,134.030
0.466,37.976,4.036,4.036,142.782,193.859,134.042
0.468,38.079,4.034,4.034,142.865,193.919,134.054
0.469,38.207,4.034,4.035,142.966,193.996,134.065
0.471,38.360,4.038,4.039,143.086,194.091,134.076
0.472,38.540,4.046,4.047,143.226,194.203,134.087
0.474,38.741,4.059,4.059,143.382,194.330,134.096
0.476,38.956,4.077,4.077,143.548,194.466,134.106
0.477,39.179,4.100,4.100,143.720,194.607,134.116
0.479,39.403,4.126,4.125,143.893,194.750,134.126
0.480,39.623,4.152,4.152,144.061,194.890,134.138
0.482,39.830,4.179,4.179,144.220,195.023,134.152
0.483,40.020,4.203,4.203,144.365,195.145,134.169
0.485,40.186,4.223,4.223,144.490,195.252,134.188
0.487,40.322,4.237,4.237,144.591,195.340,134.210
0.488,40.429,4.247,4.247,144.669,195.409,134.235
0.490,40.511,4.251,4.251,144.727,195.461,134.261
0.491,40.571,4.252,4.252,144.766,195.498,134.287
0.493,40.612,4.249,4.249,144.789,195.521,134.312
0.494,40.640,4.242,4.242,144.799,195.532,134.336
0.496,40.660,4.232,4.232,144.799,195.533,134.356
0.498,40.680,4.221,4.221,144.791,195.526,134.372
0.499,40.703,4.208,4.208,144.777,195.512,134.383
0.501,40.729,4.195,4.195,144.760,195.492,134.387
0.502,40.757,4.183,4.183,144.743,195.470,134.385
0.504,40.785,4.173,4.173,144.731,195.445,134.377
0.506,40.814,4.165,4.165,144.728,195.420,134.364
0.507,40.845,4.161,4.161,144.739,195.396,134.347
0.509,40.886,4.160,4.160,144.766,195.374,134.327
0.510,40.943,4.162,4.162,144.816,195.356,134.304
0.512,41.023,4.166,4.166,144.891,195.344,134.279
0.513,41.132,4.172,4.172,144.997,195.339,134.254
0.515,41.274,4.180,4.180,145.137,195.342,134.228
0.517,41.452,4.190,4.190,145.312,195.354,134.204
0.518,41.658,4.199,4.199,145.516,195.375,134.181
0.520,41.885,4.205,4.205,145.740,195.403,134.160
0.521,42.125,4.207,4.207,145.977,195.438,134.143
0.523,42.370,4.203,4.203,146.218,195.479,134.130
0.524,42.611,4.190,4.190,146.455,195.525,134.121
0.526,42.842,4.167,4.167,146.681,195.575,134.118
0.528,43.055,4.135,4.135,146.887,195.627,134.122
0.529,43.242,4.097,4.097,147.065,195.683,134.132
0.531,43.398,4.060,4.060,147.209,195.739,134.151
0.532,43.524,4.026,4.026,147.320,195.796,134.175
0.534,43.627,3.999,3.999,147.401,195.852,134.204
0.536,43.710,3.986,3.986,147.457,195.905,134.234
0.537,43.778,3.987,3.987,147.491,195.956,134.263
0.539,43.834,4.001,4.001,147.508,196.002,134.290
0.540,43.880,4.026,4.026,147.512,196.043,134.311
0.542,43.918,4.057,4.057,147.505,196.077,134.326
0.543,43.948,4.092,4.092,147.493,196.104,134.331
0.545,43.972,4.127,4.127,147.478,196.122,134.324
0.547,43.996,4.161,4.161,147.464,196.132,134.309
0.548,44.020,4.191,4.191,147.451,196.138,134.289
0.550,44.043,4.215,4.215,147.439,196.143,134.270
0.551,44.060,4.232,4.232,147.430,196.150,134.258
0.553,44.073,4.241,4.241,147.425,196.162,134.257
0.555,44.099,4.238,4.238,147.424,196.182,134.274
0.556,44.149,4.224,4.224,147.427,196.213,134.314
0.558,44.232,4.197,4.197,147.437,196.259,134.381
0.559,44.352,4.159,4.159,147.454,196.322,134.482
0.561,44.512,4.112,4.112,147.476,196.404,134.618
0.562,44.705,4.058,4.058,147.504,196.500,134.782
0.564,44.922,3.998,3.998,147.533,196.609,134.969
0.566,45.157,3.935,3.935,147.561,196.726,135.170
0.567,45.400,3.869,3.869,147.587,196.847,135.380
0.569,45.645,3.804,3.804,147.608,196.968,135.591
0.570,45.883,3.741,3.741,147.621,197.087,135.797
0.572,46.107,3.684,3.684,147.624,197.199,135.991
0.573,46.310,3.635,3.635,147.615,197.301,136.167
0.575,46.487,3.596,3.596,147.592,197.391,136.318
0.577,46.641,3.569,3.569,147.556,197.467,136.446
0.578,46.776,3.554,3.554,147.510,197.532,136.555
0.580,46.897,3.545,3.545,147.455,197.587,136.648
0.581,47.009,3.537,3.537,147.394,197.634,136.729
0.583,47.114,3.524,3.524,147.328,197.674,136.800
0.585,47.214,3.502,3.502,147.260,197.708,136.866
0.586,47.312,3.465,3.465,147.192,197.738,136.930
0.588,47.408,3.412,3.412,147.126,197.765,136.995
0.589,47.505,3.346,3.346,147.065,197.791,137.064
0.591,47.601,3.275,3.275,147.009,197.818,137.137
0.592,47.697,3.205,3.205,146.960,197.852,137.212
0.594,47.793,3.142,3.142,146.919,197.897,137.287
0.596,47.892,3.092,3.092,146.889,197.956,137.360
0.597,47.998,3.060,3.060,146.870,198.036,137.427
0.599,48.118,3.044,3.044,146.864,198.140,137.488
0.600,48.261,3.033,3.033,146.872,198.272,137.540
0.602,48.433,3.020,3.020,146.896,198.438,137.579
0.603,48.641,2.996,2.996,146.937,198.641,137.606
0.605,48.889,2.953,2.953,146.995,198.882,137.618
0.607,49.170,2.882,2.882,147.068,199.153,137.621
0.608,49.477,2.783,2.783,147.153,199.448,137.619
0.610,49.803,2.663,2.663,147.248,199.760,137.616
0.611,50.139,2.534,2.534,147.350,200.080,137.616
0.613,50.479,2.405,2.405,147.457,200.403,137.624
0.615,50.815,2.285,2.285,147.567,200.719,137.644
0.616,51.141,2.184,2.184,147.677,201.024,137.681
0.618,51.450,2.111,2.111,147.785,201.308,137.738
0.619,51.740,2.063,2.063,147.888,201.567,137.818
0.621,52.011,2.036,2.036,147.985,201.799,137.919
0.622,52.266,2.027,2.027,148.077,202.007,138.034
0.624,52.503,2.031,2.031,148.161,202.191,138.158
0.626,52.723,2.045,2.045,148.237,202.351,138.287
0.627,52.924,2.065,2.065,148.305,202.490,138.416
0.629,53.104,2.087,2.087,148.363,202.608,138.540
0.630,53.261,2.113,2.113,148.410,202.706,138.653
0.632,53.392,2.140,2.140,148.447,202.785,138.751
0.633,53.494,2.169,2.169,148.472,202.846,138.828
0.635,53.569,2.198,2.198,148.487,202.891,138.886
0.637,53.620,2.227,2.227,148.496,202.924,138.924
0.638,53.653,2.256,2.256,148.503,202.948,138.945
0.640,53.672,2.282,2.282,148.510,202.965,138.952
0.641,53.691,2.305,2.305,148.522,202.978,138.944
0.643,53.721,2.322,2.322,148.541,202.991,138.925
0.645,53.766,2.333,2.333,148.572,203.006,138.896
