"T","Distance","Radius","FreeRadius","X","Y","Z"
0.000,0.000,1.415,1.475,120.498,170.566,120.445
0.002,0.198,1.458,1.522,120.669,170.474,120.403
0.004,0.395,1.501,1.570,120.837,170.382,120.361
0.006,0.586,1.546,1.621,121.002,170.292,120.320
0.008,0.771,1.592,1.677,121.159,170.204,120.281
0.010,0.946,1.641,1.739,121.308,170.119,120.244
0.012,1.111,1.692,1.807,121.447,170.038,120.210
0.014,1.261,1.744,1.876,121.572,169.960,120.179
0.016,1.396,1.795,1.942,121.683,169.888,120.153
0.018,1.513,1.843,1.998,121.776,169.821,120.131
0.020,1.610,1.886,2.040,121.851,169.761,120.113
0.022,1.686,1.923,2.063,121.903,169.707,120.102
0.024,1.744,1.952,2.071,121.936,169.661,120.095
0.026,1.787,1.975,2.069,121.953,169.621,120.091
0.028,1.822,1.992,2.062,121.958,169.587,120.088
0.030,1.852,2.002,2.057,121.956,169.557,120.084
0.032,1.878,2.006,2.055,121.952,169.532,120.076
0.034,1.903,2.004,2.058,121.948,169.511,120.064
0.037,1.931,1.999,2.064,121.951,169.493,120.044
0.039,1.966,1.991,2.071,121.963,169.477,120.014
0.041,2.017,1.981,2.079,121.990,169.462,119.973
0.043,2.089,1.971,2.087,122.036,169.449,119.919
0.045,2.187,1.963,2.096,122.104,169.436,119.850
0.047,2.308,1.961,2.109,122.191,169.422,119.768
0.049,2.448,1.968,2.128,122.294,169.406,119.674
0.051,2.605,1.985,2.154,122.411,169.386,119.570
0.053,2.775,2.016,2.191,122.536,169.361,119.459
0.055,2.954,2.058,2.233,122.668,169.331,119.341
0.057,3.139,2.108,2.280,122.802,169.293,119.219
0.059,3.327,2.165,2.327,122.935,169.247,119.095
0.061,3.514,2.224,2.372,123.064,169.191,118.971
0.063,3.700,2.285,2.413,123.185,169.124,118.848
0.065,3.881,2.346,2.453,123.295,169.045,118.728
0.067,4.057,2.407,2.495,123.393,168.955,118.612
0.069,4.229,2.466,2.542,123.480,168.857,118.501
0.071,4.396,2.524,2.597,123.556,168.754,118.395
0.073,4.556,2.579,2.661,123.623,168.648,118.294
0.075,4.709,2.629,2.726,123.681,168.544,118.199
0.077,4.852,2.672,2.785,123.732,168.443,118.110
0.079,4.984,2.705,2.827,123.775,168.350,118.027
0.081,5.103,2.725,2.846,123.812,168.267,117.951
0.083,5.207,2.732,2.837,123.845,168.197,117.882
0.085,5.293,2.730,2.809,123.872,168.144,117.820
0.087,5.362,2.725,2.773,123.897,168.108,117.765
0.089,5.417,2.721,2.740,123.918,168.090,117.718
0.091,5.462,2.723,2.719,123.936,168.085,117.677
0.093,5.502,2.734,2.719,123.952,168.092,117.642
0.095,5.538,2.752,2.734,123.965,168.109,117.612
0.097,5.574,2.774,2.760,123.975,168.132,117.587
0.099,5.610,2.798,2.792,123.984,168.160,117.566
0.101,5.645,2.822,2.823,123.991,168.190,117.548
0.103,5.678,2.842,2.851,123.996,168.219,117.534
0.105,5.707,2.858,2.875,124.000,168.244,117.521
0.108,5.730,2.872,2.894,124.003,168.265,117.510
0.110,5.748,2.882,2.908,124.004,168.280,117.501
0.112,5.760,2.889,2.918,124.006,168.289,117.492
0.114,5.770,2.893,2.923,124.007,168.295,117.484
0.116,5.779,2.895,2.925,124.008,168.297,117.476
0.118,5.788,2.896,2.925,124.010,168.298,117.468
0.120,5.797,2.897,2.923,124.014,168.298,117.459
0.122,5.808,2.899,2.921,124.018,168.299,117.449
0.124,5.821,2.902,2.921,124.024,168.300,117.438
0.126,5.837,2.907,2.922,124.033,168.304,117.425
0.128,5.857,2.914,2.924,124.044,168.311,117.410
0.130,5.882,2.925,2.929,124.057,168.322,117.392
0.132,5.910,2.938,2.937,124.073,168.337,117.373
0.134,5.941,2.954,2.947,124.088,168.354,117.353
0.136,5.972,2.971,2.959,124.103,168.372,117.333
0.138,6.002,2.985,2.973,124.115,168.391,117.313
0.140,6.029,2.995,2.988,124.125,168.410,117.295
0.142,6.054,2.998,3.002,124.130,168.427,117.279
0.144,6.074,2.993,3.017,124.129,168.442,117.266
0.146,6.091,2.982,3.031,124.121,168.454,117.256
0.148,6.109,2.965,3.043,124.106,168.462,117.251
0.150,6.133,2.945,3.055,124.081,168.465,117.251
0.152,6.165,2.923,3.065,124.050,168.463,117.256
0.154,6.198,2.901,3.073,124.018,168.457,117.262
0.156,6.227,2.882,3.077,123.991,168.449,117.268
0.158,6.247,2.866,3.074,123.974,168.439,117.273
0.160,6.256,2.858,3.065,123.974,168.430,117.272
0.162,6.280,2.859,3.045,123.995,168.421,117.266
0.164,6.331,2.869,3.017,124.043,168.415,117.251
0.166,6.417,2.881,2.982,124.125,168.413,117.225
0.168,6.543,2.890,2.945,124.245,168.414,117.186
0.170,6.717,2.890,2.908,124.410,168.422,117.132
0.172,6.940,2.874,2.876,124.621,168.436,117.062
0.174,7.203,2.843,2.852,124.870,168.454,116.979
0.176,7.497,2.809,2.839,125.148,168.476,116.886
0.178,7.809,2.786,2.840,125.443,168.498,116.788
0.181,8.128,2.784,2.860,125.746,168.520,116.688
0.183,8.444,2.818,2.902,126.046,168.539,116.590
0.185,8.745,2.887,2.962,126.332,168.553,116.497
0.187,9.021,2.975,3.030,126.595,168.561,116.414
0.189,9.260,3.061,3.093,126.823,168.560,116.343
0.191,9.453,3.129,3.139,127.008,168.549,116.289
0.193,9.590,3.160,3.156,127.138,168.526,116.255
0.195,9.675,3.150,3.141,127.216,168.492,116.240
0.197,9.727,3.114,3.108,127.250,168.454,116.238
0.199,9.768,3.070,3.068,127.251,168.414,116.245
0.201,9.812,3.035,3.036,127.227,168.377,116.255
0.203,9.860,3.025,3.023,127.189,168.349,116.263
0.205,9.906,3.042,3.033,127.146,168.334,116.265
0.207,9.945,3.074,3.056,127.108,168.336,116.255
0.209,9.989,3.105,3.084,127.084,168.361,116.228
0.211,10.059,3.119,3.107,127.085,168.412,116.178
0.213,10.177,3.101,3.114,127.119,168.494,116.102
0.215,10.351,3.050,3.104,127.193,168.610,115.996
0.217,10.575,2.979,3.082,127.301,168.755,115.864
0.219,10.840,2.903,3.055,127.438,168.923,115.711
0.221,11.135,2.837,3.031,127.594,169.110,115.544
0.223,11.451,2.795,3.015,127.764,169.309,115.368
0.225,11.777,2.781,3.009,127.941,169.516,115.187
0.227,12.103,2.789,3.010,128.117,169.724,115.009
0.229,12.418,2.813,3.014,128.286,169.927,114.837
0.231,12.713,2.846,3.016,128.440,170.121,114.678
0.233,12.977,2.881,3.013,128.573,170.300,114.536
0.235,13.200,2.913,3.004,128.677,170.459,114.418
0.237,13.383,2.941,2.994,128.752,170.595,114.323
0.239,13.530,2.962,2.985,128.804,170.710,114.247
0.241,13.646,2.974,2.983,128.834,170.805,114.188
0.243,13.736,2.977,2.990,128.849,170.882,114.142
0.245,13.806,2.970,3.007,128.852,170.941,114.105
0.247,13.859,2.958,3.029,128.848,170.983,114.074
0.249,13.900,2.945,3.054,128.840,171.010,114.044
0.252,13.933,2.935,3.076,128.833,171.023,114.014
0.254,13.969,2.933,3.091,128.831,171.022,113.978
0.256,14.015,2.940,3.100,128.839,171.010,113.934
0.258,14.078,2.954,3.105,128.858,170.987,113.880
0.260,14.156,2.976,3.111,128.888,170.955,113.814
0.262,14.248,3.005,3.120,128.924,170.916,113.739
0.264,14.352,3.040,3.136,128.966,170.872,113.655
0.266,14.464,3.078,3.160,129.009,170.824,113.563
0.268,14.583,3.117,3.188,129.051,170.775,113.463
0.270,14.707,3.154,3.217,129.089,170.726,113.356
0.272,14.833,3.185,3.246,129.121,170.679,113.244
0.274,14.960,3.209,3.271,129.143,170.636,113.127
0.276,15.087,3.223,3.292,129.154,170.599,113.005
0.278,15.216,3.228,3.309,129.150,170.569,112.880
0.280,15.347,3.227,3.325,129.133,170.546,112.752
0.282,15.480,3.219,3.338,129.107,170.530,112.623
0.284,15.613,3.206,3.351,129.074,170.520,112.494
0.286,15.745,3.191,3.364,129.038,170.513,112.367
0.288,15.875,3.179,3.376,129.004,170.510,112.242
0.290,16.000,3.175,3.387,128.974,170.508,112.121
0.292,16.118,3.185,3.396,128.952,170.507,112.005
0.294,16.228,3.212,3.402,128.942,170.506,111.895
0.296,16.331,3.254,3.405,128.948,170.503,111.793
0.298,16.427,3.302,3.406,128.972,170.498,111.699
0.300,16.523,3.349,3.404,129.017,170.490,111.615
0.302,16.623,3.387,3.399,129.080,170.482,111.538
0.304,16.728,3.406,3.392,129.155,170.478,111.465
0.306,16.839,3.408,3.384,129.241,170.480,111.395
0.308,16.954,3.399,3.378,129.332,170.491,111.324
0.310,17.074,3.388,3.375,129.424,170.516,111.251
0.312,17.200,3.382,3.379,129.514,170.556,111.173
0.314,17.333,3.386,3.390,129.598,170.615,111.088
0.316,17.478,3.399,3.406,129.671,170.696,110.993
0.318,17.640,3.413,3.419,129.729,170.803,110.886
0.320,17.827,3.420,3.423,129.770,170.938,110.764
0.323,18.037,3.410,3.411,129.792,171.098,110.630
0.325,18.267,3.376,3.375,129.800,171.277,110.486
0.327,18.509,3.319,3.317,129.795,171.469,110.337
0.329,18.759,3.245,3.243,129.780,171.667,110.187
0.331,19.007,3.160,3.160,129.758,171.865,110.039
0.333,19.246,3.073,3.073,129.733,172.057,109.897
0.335,19.470,2.988,2.988,129.706,172.235,109.765
0.337,19.670,2.910,2.911,129.680,172.395,109.647
0.339,19.839,2.842,2.842,129.658,172.528,109.546
0.341,19.968,2.786,2.786,129.644,172.630,109.467
0.343,20.055,2.745,2.745,129.638,172.697,109.412
0.345,20.106,2.720,2.720,129.640,172.734,109.377
0.347,20.130,2.712,2.711,129.648,172.748,109.360
0.349,20.143,2.716,2.716,129.661,172.745,109.357
0.351,20.166,2.731,2.731,129.678,172.733,109.367
0.353,20.197,2.752,2.752,129.697,172.717,109.385
0.355,20.231,2.777,2.778,129.717,172.705,109.408
0.357,20.264,2.802,2.802,129.738,172.702,109.434
0.359,20.298,2.819,2.819,129.756,172.716,109.459
0.361,20.343,2.824,2.824,129.772,172.752,109.481
0.363,20.412,2.810,2.810,129.784,172.818,109.496
0.365,20.508,2.772,2.772,129.792,172.913,109.504
0.367,20.629,2.713,2.713,129.796,173.035,109.507
0.369,20.773,2.641,2.641,129.797,173.179,109.506
0.371,20.937,2.561,2.561,129.796,173.342,109.503
0.373,21.117,2.482,2.482,129.793,173.522,109.499
0.375,21.309,2.410,2.410,129.789,173.715,109.496
0.377,21.512,2.345,2.345,129.784,173.917,109.495
0.379,21.721,2.289,2.289,129.779,174.126,109.497
0.381,21.932,2.238,2.238,129.774,174.338,109.506
0.383,22.144,2.192,2.192,129.771,174.549,109.520
0.385,22.354,2.151,2.151,129.769,174.757,109.543
0.387,22.559,2.116,2.116,129.769,174.961,109.571
0.389,22.760,2.089,2.089,129.770,175.158,109.604
0.391,22.953,2.073,2.073,129.773,175.348,109.641
0.394,23.137,2.070,2.070,129.777,175.528,109.680
0.396,23.312,2.083,2.083,129.783,175.698,109.718
0.398,23.474,2.106,2.106,129.790,175.856,109.756
0.400,23.622,2.134,2.134,129.799,176.000,109.792
0.402,23.755,2.159,2.159,129.810,176.128,109.823
0.404,23.871,2.174,2.174,129.822,176.241,109.849
0.406,23.968,2.174,2.174,129.835,176.335,109.868
0.408,24.049,2.161,2.161,129.851,176.413,109.880
0.410,24.117,2.141,2.141,129.870,176.478,109.886
0.412,24.177,2.121,2.121,129.892,176.534,109.885
0.414,24.233,2.107,2.107,129.918,176.584,109.880
0.416,24.290,2.105,2.105,129.949,176.630,109.869
0.418,24.351,2.113,2.113,129.985,176.677,109.854
0.420,24.420,2.127,2.127,130.028,176.728,109.836
0.422,24.500,2.144,2.144,130.078,176.786,109.814
0.424,24.593,2.161,2.161,130.135,176.855,109.789
0.426,24.701,2.173,2.173,130.201,176.937,109.762
0.428,24.827,2.182,2.182,130.275,177.034,109.734
0.430,24.966,2.191,2.191,130.356,177.143,109.704
0.432,25.113,2.203,2.203,130.442,177.258,109.673
0.434,25.265,2.222,2.222,130.531,177.377,109.641
0.436,25.417,2.249,2.249,130.622,177.495,109.609
0.438,25.564,2.282,2.282,130.712,177.607,109.577
0.440,25.703,2.315,2.315,130.799,177.709,109.545
0.442,25.829,2.346,2.346,130.883,177.798,109.513
0.444,25.939,2.368,2.368,130.961,177.870,109.483
0.446,26.029,2.379,2.379,131.031,177.919,109.454
0.448,26.100,2.381,2.381,131.091,177.942,109.427
0.450,26.155,2.375,2.375,131.141,177.944,109.401
0.452,26.200,2.366,2.366,131.177,177.930,109.378
0.454,26.237,2.357,2.357,131.198,177.909,109.358
0.456,26.265,2.349,2.349,131.203,177.886,109.340
0.458,26.290,2.341,2.341,131.190,177.871,109.326
0.460,26.325,2.328,2.328,131.156,177.869,109.316
0.462,26.384,2.306,2.306,131.101,177.888,109.310
0.465,26.476,2.271,2.271,131.022,177.935,109.308
0.467,26.609,2.218,2.218,130.918,178.017,109.311
0.469,26.790,2.152,2.152,130.787,178.141,109.320
0.471,27.021,2.076,2.076,130.629,178.310,109.333
0.473,27.295,1.994,1.994,130.450,178.516,109.351
0.475,27.599,1.911,1.911,130.256,178.750,109.371
0.477,27.923,1.831,1.831,130.054,179.002,109.394
0.479,28.257,1.754,1.754,129.848,179.265,109.418
0.481,28.590,1.680,1.680,129.646,179.528,109.442
0.483,28.911,1.608,1.608,129.454,179.784,109.464
0.485,29.209,1.540,1.540,129.276,180.022,109.485
0.487,29.473,1.475,1.475,129.121,180.235,109.502
0.489,29.693,1.416,1.416,128.992,180.413,109.515
0.491,29.858,1.366,1.366,128.897,180.548,109.523
0.493,29.972,1.327,1.327,128.833,180.641,109.526
0.495,30.042,1.304,1.304,128.797,180.701,109.524
0.497,30.078,1.297,1.297,128.783,180.734,109.517
0.499,30.095,1.304,1.304,128.787,180.746,109.505
0.501,30.119,1.320,1.320,128.805,180.744,109.489
0.503,30.153,1.341,1.341,128.832,180.736,109.470
0.505,30.193,1.363,1.363,128.864,180.727,109.447
0.507,30.234,1.382,1.382,128.895,180.726,109.420
0.509,30.275,1.395,1.395,128.922,180.739,109.391
0.511,30.325,1.402,1.402,128.939,180.772,109.358
0.513,30.392,1.400,1.400,128.946,180.829,109.323
0.515,30.478,1.389,1.389,128.944,180.906,109.285
0.517,30.579,1.368,1.368,128.938,180.997,109.242
0.519,30.692,1.341,1.341,128.930,181.099,109.195
0.521,30.812,1.314,1.314,128.925,181.206,109.141
0.523,30.935,1.294,1.294,128.926,181.314,109.082
0.525,31.058,1.285,1.285,128.937,181.417,109.015
0.527,31.180,1.291,1.291,128.960,181.511,108.941
0.529,31.303,1.307,1.307,129.000,181.591,108.857
0.531,31.429,1.327,1.327,129.060,181.653,108.765
0.533,31.566,1.343,1.343,129.143,181.691,108.663
0.535,31.719,1.350,1.350,129.247,181.708,108.552
0.538,31.887,1.344,1.344,129.369,181.708,108.436
0.540,32.069,1.330,1.330,129.505,181.695,108.316
0.542,32.260,1.315,1.315,129.652,181.674,108.195
0.544,32.455,1.308,1.308,129.804,181.649,108.076
0.546,32.650,1.315,1.315,129.959,181.625,107.961
0.548,32.840,1.341,1.341,130.114,181.605,107.852
0.550,33.020,1.381,1.381,130.263,181.594,107.752
0.552,33.186,1.427,1.427,130.403,181.597,107.663
0.554,33.336,1.472,1.472,130.531,181.617,107.588
0.556,33.471,1.509,1.509,130.645,181.657,107.528
0.558,33.594,1.533,1.533,130.744,181.713,107.480
0.560,33.708,1.547,1.547,130.829,181.780,107.445
0.562,33.814,1.555,1.556,130.901,181.854,107.419
0.564,33.914,1.562,1.562,130.961,181.931,107.400
0.566,34.004,1.571,1.571,131.009,182.007,107.388
0.568,34.084,1.584,1.584,131.045,182.078,107.380
0.570,34.151,1.600,1.599,131.071,182.139,107.375
0.572,34.201,1.613,1.613,131.087,182.186,107.370
0.574,34.232,1.622,1.622,131.094,182.215,107.365
0.576,34.243,1.622,1.622,131.092,182.223,107.356
0.578,34.260,1.613,1.613,131.083,182.213,107.346
0.580,34.289,1.598,1.598,131.071,182.190,107.334
0.582,34.323,1.583,1.583,131.057,182.161,107.323
0.584,34.357,1.572,1.573,131.045,182.131,107.313
0.586,34.384,1.572,1.572,131.036,182.106,107.306
0.588,34.398,1.585,1.583,131.034,182.093,107.304
0.590,34.406,1.604,1.602,131.040,182.097,107.307
0.592,34.440,1.625,1.622,131.059,182.124,107.317
0.594,34.508,1.641,1.639,131.091,182.180,107.335
0.596,34.615,1.646,1.647,131.140,182.271,107.363
0.598,34.763,1.639,1.644,131.206,182.399,107.400
0.600,34.946,1.627,1.639,131.286,182.557,107.445
0.602,35.154,1.622,1.639,131.377,182.737,107.497
0.604,35.380,1.632,1.655,131.474,182.933,107.554
0.606,35.615,1.669,1.693,131.575,183.137,107.613
0.609,35.852,1.735,1.757,131.675,183.342,107.675
0.611,36.081,1.814,1.833,131.772,183.540,107.736
0.613,36.295,1.891,1.904,131.861,183.726,107.796
0.615,36.486,1.947,1.955,131.939,183.891,107.852
0.617,36.646,1.967,1.971,132.003,184.027,107.903
0.619,36.767,1.945,1.946,132.049,184.130,107.948
0.621,36.853,1.894,1.894,132.079,184.201,107.986
0.623,36.909,1.832,1.832,132.093,184.245,108.018
0.625,36.944,1.778,1.778,132.094,184.267,108.046
0.627,36.969,1.748,1.748,132.083,184.272,108.068
0.629,36.997,1.750,1.750,132.063,184.266,108.087
0.631,37.031,1.775,1.775,132.036,184.253,108.103
0.633,37.069,1.811,1.811,132.003,184.240,108.116
0.635,37.108,1.846,1.846,131.967,184.230,108.128
0.637,37.148,1.870,1.870,131.929,184.230,108.138
0.639,37.189,1.876,1.876,131.891,184.244,108.148
0.641,37.238,1.871,1.871,131.855,184.276,108.159
0.643,37.298,1.860,1.860,131.821,184.324,108.170
0.645,37.370,1.851,1.851,131.790,184.388,108.184
0.647,37.455,1.850,1.850,131.762,184.466,108.200
0.649,37.552,1.860,1.860,131.738,184.558,108.219
0.651,37.661,1.875,1.875,131.717,184.662,108.243
0.653,37.781,1.891,1.891,131.701,184.777,108.272
0.655,37.912,1.900,1.900,131.690,184.903,108.306
0.657,38.053,1.897,1.897,131.684,185.038,108.347
0.659,38.204,1.881,1.881,131.684,185.181,108.396
0.661,38.364,1.857,1.857,131.690,185.331,108.453
0.663,38.532,1.831,1.831,131.701,185.485,108.518
0.665,38.705,1.809,1.809,131.717,185.641,108.591
0.667,38.879,1.797,1.797,131.736,185.795,108.671
0.669,39.054,1.798,1.798,131.758,185.944,108.759
0.671,39.226,1.808,1.808,131.781,186.085,108.854
0.673,39.393,1.823,1.823,131.805,186.215,108.956
0.675,39.553,1.839,1.839,131.829,186.331,109.065
0.677,39.707,1.853,1.853,131.851,186.429,109.181
0.680,39.853,1.862,1.863,131.871,186.508,109.302
0.682,39.994,1.869,1.870,131.887,186.563,109.430
0.684,40.131,1.876,1.876,131.900,186.597,109.563
0.686,40.265,1.883,1.883,131.908,186.618,109.695
0.688,40.395,1.893,1.893,131.911,186.634,109.824
0.690,40.518,1.905,1.905,131.909,186.656,109.945
0.692,40.633,1.917,1.916,131.902,186.692,110.054
0.694,40.745,1.926,1.924,131.889,186.751,110.148
0.696,40.863,1.927,1.926,131.869,186.842,110.221
0.698,41.007,1.918,1.919,131.843,186.975,110.270
0.700,41.195,1.903,1.906,131.810,187.159,110.290
0.702,41.442,1.890,1.895,131.770,187.402,110.278
0.704,41.758,1.890,1.895,131.723,187.712,110.230
0.706,42.139,1.915,1.918,131.669,188.080,110.150
0.708,42.569,1.975,1.972,131.612,188.492,110.043
0.710,43.034,2.073,2.061,131.554,188.936,109.915
0.712,43.520,2.206,2.187,131.496,189.396,109.771
0.714,44.012,2.369,2.349,131.441,189.860,109.616
0.716,44.495,2.556,2.545,131.391,190.313,109.457
0.718,44.954,2.763,2.775,131.349,190.741,109.298
0.720,45.374,2.980,3.031,131.316,191.132,109.146
0.722,45.741,3.190,3.291,131.294,191.470,109.005
0.724,46.040,3.374,3.537,131.287,191.743,108.882
0.726,46.267,3.518,3.748,131.293,191.945,108.779
0.728,46.430,3.602,3.905,131.308,192.084,108.695
0.730,46.540,3.629,4.002,131.329,192.168,108.629
0.732,46.607,3.619,4.048,131.351,192.205,108.578
0.734,46.648,3.591,4.054,131.370,192.205,108.541
0.736,46.688,3.567,4.031,131.382,192.174,108.518
0.738,46.742,3.568,3.990,131.382,192.122,108.506
0.740,46.809,3.597,3.937,131.367,192.056,108.503
0.742,46.888,3.638,3.874,131.332,191.986,108.509
0.744,46.978,3.675,3.804,131.273,191.919,108.522
0.746,47.083,3.693,3.729,131.187,191.863,108.540
0.748,47.204,3.676,3.651,131.075,191.820,108.563
0.751,47.343,3.624,3.575,130.942,191.791,108.591
0.753,47.499,3.553,3.507,130.791,191.777,108.624
0.755,47.668,3.481,3.451,130.626,191.778,108.662
0.757,47.849,3.423,3.415,130.451,191.796,108.705
0.759,48.039,3.397,3.403,130.270,191.829,108.754
0.761,48.237,3.401,3.414,130.087,191.881,108.807
0.763,48.440,3.421,3.438,129.904,191.950,108.865
0.765,48.648,3.439,3.464,129.727,192.037,108.927
0.767,48.858,3.441,3.483,129.559,192.144,108.995
0.769,49.072,3.409,3.485,129.401,192.269,109.067
0.771,49.288,3.343,3.467,129.255,192.409,109.142
0.773,49.506,3.254,3.431,129.118,192.561,109.218
0.775,49.724,3.155,3.380,128.990,192.720,109.295
0.777,49.940,3.058,3.316,128.871,192.884,109.371
0.779,50.152,2.973,3.243,128.760,193.049,109.445
0.781,50.357,2.906,3.165,128.657,193.211,109.516
0.783,50.552,2.853,3.086,128.561,193.367,109.581
0.785,50.734,2.812,3.011,128.472,193.514,109.640
0.787,50.901,2.779,2.946,128.388,193.649,109.692
0.789,51.049,2.752,2.895,128.309,193.767,109.735
0.791,51.181,2.729,2.860,128.236,193.871,109.770
0.793,51.297,2.710,2.836,128.169,193.962,109.799
0.795,51.400,2.694,2.822,128.108,194.041,109.822
0.797,51.491,2.681,2.815,128.052,194.111,109.840
0.799,51.571,2.671,2.812,128.004,194.173,109.855
0.801,51.643,2.662,2.810,127.962,194.230,109.868
0.803,51.708,2.655,2.808,127.927,194.282,109.880
0.805,51.767,2.647,2.805,127.899,194.333,109.892
0.807,51.823,2.638,2.798,127.879,194.384,109.906
0.809,51.879,2.627,2.786,127.866,194.436,109.922
0.811,51.937,2.613,2.769,127.861,194.491,109.941
0.813,51.998,2.598,2.750,127.862,194.548,109.963
0.815,52.061,2.582,2.731,127.867,194.606,109.987
0.817,52.127,2.566,2.715,127.876,194.666,110.012
0.819,52.194,2.550,2.703,127.887,194.726,110.039
0.822,52.261,2.535,2.696,127.898,194.787,110.067
0.824,52.329,2.523,2.690,127.909,194.847,110.095
0.826,52.395,2.513,2.685,127.918,194.906,110.124
0.828,52.460,2.508,2.676,127.924,194.964,110.152
