"T","Distance","Radius","FreeRadius","X","Y","Z"
0.000,0.000,1.815,1.815,131.566,173.780,131.596
0.001,0.172,1.889,1.889,131.706,173.794,131.696
0.002,0.342,1.962,1.962,131.844,173.807,131.794
0.003,0.508,2.034,2.034,131.978,173.821,131.890
0.004,0.667,2.103,2.103,132.107,173.834,131.982
0.005,0.817,2.169,2.169,132.230,173.847,132.069
0.006,0.957,2.230,2.230,132.343,173.860,132.150
0.007,1.084,2.287,2.287,132.446,173.872,132.223
0.008,1.197,2.338,2.338,132.537,173.884,132.288
0.010,1.292,2.383,2.383,132.614,173.895,132.342
0.011,1.368,2.420,2.420,132.675,173.905,132.386
0.012,1.424,2.450,2.450,132.721,173.915,132.418
0.013,1.465,2.473,2.473,132.754,173.925,132.441
0.014,1.494,2.490,2.490,132.777,173.936,132.454
0.015,1.515,2.502,2.502,132.793,173.948,132.461
0.016,1.534,2.509,2.509,132.805,173.961,132.462
0.017,1.553,2.513,2.513,132.816,173.977,132.459
0.018,1.576,2.513,2.513,132.828,173.996,132.453
0.019,1.606,2.512,2.512,132.845,174.019,132.445
0.020,1.642,2.509,2.509,132.870,174.045,132.438
0.021,1.689,2.505,2.505,132.904,174.076,132.433
0.022,1.741,2.501,2.501,132.945,174.108,132.432
0.023,1.794,2.498,2.498,132.987,174.140,132.440
0.024,1.844,2.495,2.495,133.023,174.167,132.461
0.025,1.894,2.494,2.494,133.049,174.185,132.500
0.027,1.954,2.495,2.495,133.058,174.192,132.559
0.028,2.041,2.499,2.499,133.044,174.184,132.644
0.029,2.165,2.505,2.505,133.001,174.158,132.758
0.030,2.338,2.516,2.516,132.924,174.109,132.905
0.031,2.569,2.530,2.530,132.806,174.036,133.090
0.032,2.861,2.549,2.549,132.646,173.935,133.312
0.033,3.203,2.571,2.571,132.451,173.813,133.565
0.034,3.581,2.595,2.595,132.230,173.676,133.839
0.035,3.980,2.621,2.621,131.992,173.530,134.124
0.036,4.386,2.648,2.648,131.747,173.380,134.411
0.037,4.784,2.676,2.676,131.504,173.232,134.690
0.038,5.160,2.702,2.702,131.272,173.094,134.952
0.039,5.500,2.727,2.727,131.061,172.970,135.187
0.040,5.789,2.750,2.750,130.879,172.867,135.387
0.041,6.013,2.769,2.769,130.736,172.791,135.542
0.042,6.169,2.785,2.785,130.634,172.742,135.649
0.043,6.266,2.798,2.798,130.569,172.717,135.716
0.045,6.312,2.808,2.808,130.536,172.711,135.747
0.046,6.322,2.814,2.814,130.531,172.720,135.749
0.047,6.357,2.818,2.818,130.549,172.739,135.727
0.048,6.417,2.817,2.817,130.586,172.764,135.686
0.049,6.496,2.814,2.814,130.638,172.792,135.634
0.050,6.585,2.807,2.807,130.700,172.817,135.575
0.051,6.677,2.797,2.797,130.767,172.836,135.515
0.052,6.765,2.785,2.785,130.836,172.845,135.461
0.053,6.845,2.771,2.771,130.900,172.844,135.414
0.054,6.912,2.757,2.757,130.956,172.838,135.377
0.055,6.962,2.746,2.746,130.998,172.827,135.352
0.056,6.989,2.738,2.738,131.020,172.816,135.341
0.057,7.001,2.736,2.736,131.018,172.805,135.347
0.058,7.041,2.740,2.740,130.987,172.799,135.371
0.059,7.121,2.753,2.753,130.921,172.800,135.415
0.060,7.246,2.775,2.775,130.815,172.809,135.482
0.062,7.424,2.809,2.809,130.664,172.831,135.574
0.063,7.654,2.852,2.852,130.468,172.865,135.690
0.064,7.926,2.902,2.902,130.237,172.910,135.825
0.065,8.227,2.956,2.956,129.980,172.964,135.974
0.066,8.546,3.012,3.012,129.709,173.023,136.130
0.067,8.870,3.067,3.067,129.434,173.087,136.289
0.068,9.188,3.119,3.119,129.164,173.152,136.443
0.069,9.487,3.165,3.165,128.911,173.216,136.589
0.070,9.755,3.201,3.201,128.685,173.277,136.720
0.071,9.981,3.227,3.227,128.495,173.332,136.830
0.072,10.153,3.240,3.240,128.353,173.379,136.914
0.073,10.271,3.242,3.242,128.258,173.419,136.972
0.074,10.344,3.235,3.235,128.202,173.451,137.007
0.075,10.382,3.221,3.221,128.180,173.477,137.024
0.076,10.403,3.201,3.201,128.184,173.497,137.024
0.077,10.433,3.177,3.177,128.207,173.512,137.013
0.078,10.475,3.150,3.150,128.243,173.524,136.993
0.080,10.524,3.123,3.123,128.284,173.533,136.967
0.081,10.572,3.096,3.096,128.323,173.539,136.940
0.082,10.613,3.072,3.072,128.354,173.545,136.915
0.083,10.640,3.051,3.051,128.371,173.550,136.895
0.084,10.657,3.033,3.033,128.376,173.555,136.880
0.085,10.671,3.016,3.016,128.369,173.562,136.869
0.086,10.689,3.002,3.002,128.353,173.569,136.863
0.087,10.714,2.989,2.989,128.330,173.579,136.861
0.088,10.745,2.978,2.978,128.302,173.592,136.864
0.089,10.780,2.967,2.967,128.272,173.607,136.870
0.090,10.818,2.958,2.958,128.240,173.627,136.880
0.091,10.859,2.948,2.948,128.210,173.651,136.893
0.092,10.902,2.939,2.939,128.182,173.679,136.910
0.093,10.948,2.928,2.928,128.158,173.713,136.929
0.094,10.998,2.915,2.915,128.134,173.752,136.951
0.095,11.053,2.899,2.899,128.108,173.793,136.975
0.097,11.114,2.877,2.877,128.076,173.838,137.002
0.098,11.182,2.850,2.850,128.036,173.885,137.032
0.099,11.259,2.815,2.815,127.985,173.933,137.063
0.100,11.347,2.772,2.772,127.920,173.982,137.096
0.101,11.449,2.719,2.719,127.838,174.030,137.131
0.102,11.567,2.656,2.656,127.736,174.078,137.168
0.103,11.705,2.584,2.584,127.612,174.124,137.206
0.104,11.858,2.506,2.506,127.470,174.167,137.244
0.105,12.021,2.426,2.426,127.316,174.205,137.283
0.106,12.186,2.346,2.346,127.158,174.235,137.320
0.107,12.347,2.270,2.270,127.003,174.256,137.356
0.108,12.498,2.201,2.201,126.855,174.265,137.388
0.109,12.633,2.142,2.142,126.724,174.261,137.417
0.110,12.746,2.096,2.096,126.615,174.242,137.442
0.111,12.836,2.066,2.066,126.535,174.206,137.461
0.112,12.909,2.054,2.054,126.491,174.149,137.473
0.113,12.985,2.054,2.054,126.484,174.074,137.479
0.115,13.078,2.064,2.064,126.503,173.982,137.478
0.116,13.185,2.078,2.078,126.535,173.881,137.468
0.117,13.298,2.092,2.092,126.566,173.773,137.452
0.118,13.410,2.103,2.103,126.583,173.666,137.427
0.119,13.519,2.105,2.105,126.572,173.562,137.394
0.120,13.634,2.095,2.095,126.520,173.468,137.353
0.121,13.776,2.068,2.068,126.413,173.388,137.303
0.122,13.970,2.020,2.020,126.238,173.328,137.245
0.123,14.237,1.953,1.953,125.983,173.291,137.178
0.124,14.578,1.871,1.871,125.650,173.279,137.103
0.125,14.979,1.780,1.780,125.258,173.290,137.022
0.126,15.421,1.684,1.684,124.825,173.320,136.939
0.127,15.887,1.589,1.589,124.368,173.366,136.854
0.128,16.359,1.498,1.498,123.908,173.426,136.772
0.129,16.818,1.417,1.417,123.461,173.496,136.693
0.130,17.246,1.351,1.351,123.047,173.575,136.621
0.131,17.624,1.304,1.304,122.683,173.659,136.558
0.133,17.936,1.279,1.279,122.389,173.745,136.506
0.134,18.167,1.273,1.273,122.178,173.831,136.468
0.135,18.326,1.284,1.284,122.043,173.914,136.441
0.136,18.432,1.309,1.309,121.972,173.991,136.427
0.137,18.504,1.343,1.343,121.951,174.060,136.422
0.138,18.564,1.383,1.383,121.966,174.118,136.427
0.139,18.623,1.427,1.427,122.002,174.162,136.440
0.140,18.681,1.472,1.472,122.048,174.191,136.459
0.141,18.729,1.513,1.513,122.088,174.201,136.483
0.142,18.767,1.548,1.548,122.110,174.190,136.512
0.143,18.815,1.577,1.577,122.100,174.155,136.543
0.144,18.898,1.599,1.599,122.051,174.097,136.578
0.145,19.018,1.618,1.618,121.968,174.020,136.616
0.146,19.167,1.633,1.633,121.858,173.930,136.660
0.147,19.339,1.645,1.645,121.727,173.831,136.712
0.148,19.528,1.657,1.657,121.581,173.729,136.774
0.150,19.725,1.668,1.668,121.427,173.629,136.846
0.151,19.925,1.680,1.680,121.270,173.536,136.930
0.152,20.124,1.695,1.695,121.119,173.456,137.029
0.153,20.316,1.712,1.712,120.978,173.393,137.143
0.154,20.501,1.732,1.732,120.854,173.353,137.275
0.155,20.683,1.753,1.753,120.747,173.335,137.421
0.156,20.863,1.775,1.775,120.654,173.335,137.576
0.157,21.041,1.797,1.797,120.572,173.349,137.733
0.158,21.214,1.818,1.818,120.497,173.374,137.887
0.159,21.378,1.838,1.838,120.428,173.406,138.032
0.160,21.530,1.856,1.856,120.359,173.441,138.163
0.161,21.665,1.872,1.872,120.289,173.475,138.273
0.162,21.781,1.883,1.883,120.214,173.505,138.357
0.163,21.881,1.891,1.891,120.131,173.525,138.409
0.164,21.977,1.896,1.896,120.038,173.535,138.426
0.165,22.078,1.898,1.898,119.937,173.534,138.412
0.166,22.190,1.898,1.898,119.832,173.524,138.374
0.168,22.311,1.896,1.896,119.726,173.508,138.318
0.169,22.436,1.893,1.893,119.623,173.487,138.251
0.170,22.559,1.888,1.888,119.527,173.464,138.179
0.171,22.673,1.883,1.883,119.439,173.439,138.109
0.172,22.773,1.878,1.878,119.365,173.414,138.048
0.173,22.851,1.873,1.873,119.307,173.393,138.001
0.174,22.900,1.868,1.868,119.268,173.375,137.975
0.175,22.923,1.863,1.863,119.250,173.363,137.971
0.176,22.937,1.859,1.859,119.246,173.356,137.984
0.177,22.961,1.855,1.855,119.254,173.352,138.006
0.178,22.990,1.851,1.851,119.267,173.352,138.031
0.179,23.017,1.847,1.847,119.282,173.355,138.053
0.180,23.036,1.843,1.843,119.295,173.360,138.067
0.181,23.044,1.840,1.840,119.299,173.366,138.064
0.182,23.070,1.837,1.837,119.292,173.374,138.040
0.183,23.129,1.834,1.834,119.268,173.382,137.987
0.185,23.226,1.831,1.831,119.224,173.389,137.901
0.186,23.359,1.830,1.830,119.161,173.397,137.785
0.187,23.520,1.830,1.830,119.082,173.403,137.644
0.188,23.703,1.831,1.831,118.993,173.409,137.485
0.189,23.898,1.834,1.834,118.896,173.414,137.315
0.190,24.099,1.838,1.838,118.796,173.417,137.141
0.191,24.299,1.845,1.845,118.696,173.420,136.968
0.192,24.488,1.854,1.854,118.601,173.420,136.804
0.193,24.661,1.866,1.866,118.514,173.420,136.654
0.194,24.809,1.880,1.880,118.440,173.417,136.527
0.195,24.928,1.895,1.895,118.380,173.412,136.424
0.196,25.019,1.910,1.910,118.334,173.406,136.346
0.197,25.085,1.925,1.925,118.301,173.397,136.289
0.198,25.131,1.939,1.939,118.278,173.387,136.251
0.199,25.158,1.951,1.951,118.264,173.376,136.230
0.200,25.174,1.960,1.960,118.258,173.363,136.223
0.201,25.189,1.966,1.966,118.258,173.349,136.228
0.203,25.211,1.967,1.967,118.263,173.333,136.242
0.204,25.239,1.965,1.965,118.271,173.316,136.263
0.205,25.271,1.958,1.958,118.280,173.299,136.289
0.206,25.305,1.948,1.948,118.290,173.280,136.316
0.207,25.337,1.934,1.934,118.299,173.263,136.340
0.208,25.362,1.917,1.917,118.308,173.246,136.357
0.209,25.378,1.898,1.898,118.314,173.232,136.364
0.210,25.392,1.875,1.875,118.317,173.222,136.356
0.211,25.419,1.851,1.851,118.316,173.215,136.330
0.212,25.467,1.825,1.825,118.311,173.214,136.282
0.213,25.543,1.797,1.797,118.300,173.219,136.207
0.214,25.650,1.769,1.769,118.283,173.231,136.103
0.215,25.790,1.740,1.740,118.258,173.251,135.965
0.216,25.959,1.713,1.713,118.228,173.276,135.801
0.217,26.148,1.687,1.687,118.193,173.305,135.618
0.218,26.349,1.663,1.663,118.154,173.335,135.423
0.220,26.553,1.643,1.643,118.114,173.363,135.225
0.221,26.753,1.626,1.626,118.073,173.388,135.031
0.222,26.940,1.614,1.614,118.032,173.406,134.850
0.223,27.106,1.608,1.608,117.994,173.415,134.688
0.224,27.243,1.606,1.606,117.959,173.412,134.555
0.225,27.346,1.609,1.609,117.929,173.396,134.458
0.226,27.417,1.614,1.614,117.904,173.366,134.399
0.227,27.470,1.620,1.620,117.885,173.326,134.372
0.228,27.520,1.626,1.626,117.870,173.277,134.371
0.229,27.576,1.630,1.630,117.859,173.225,134.387
0.230,27.636,1.631,1.631,117.853,173.172,134.414
0.231,27.694,1.628,1.628,117.850,173.122,134.444
0.232,27.746,1.618,1.618,117.850,173.078,134.471
0.233,27.783,1.601,1.601,117.852,173.044,134.487
0.234,27.805,1.578,1.578,117.857,173.024,134.486
0.235,27.831,1.551,1.551,117.863,173.019,134.460
0.236,27.881,1.520,1.520,117.869,173.028,134.412
0.238,27.948,1.487,1.487,117.870,173.043,134.346
0.239,28.026,1.454,1.454,117.862,173.058,134.270
0.240,28.110,1.422,1.422,117.841,173.067,134.189
0.241,28.198,1.392,1.392,117.804,173.061,134.110
0.242,28.294,1.367,1.367,117.747,173.036,134.037
0.243,28.407,1.347,1.347,117.666,172.983,133.979
0.244,28.552,1.333,1.333,117.557,172.897,133.939
0.245,28.742,1.325,1.325,117.416,172.770,133.926
0.246,28.986,1.323,1.323,117.241,172.599,133.941
0.247,29.278,1.326,1.326,117.039,172.393,133.983
0.248,29.605,1.335,1.335,116.819,172.159,134.044
0.249,29.955,1.349,1.349,116.586,171.910,134.121
0.250,30.314,1.367,1.367,116.350,171.653,134.207
0.251,30.668,1.391,1.391,116.119,171.400,134.297
0.252,31.006,1.418,1.418,115.900,171.159,134.386
0.253,31.312,1.450,1.450,115.701,170.942,134.469
0.255,31.574,1.484,1.484,115.529,170.757,134.540
0.256,31.778,1.520,1.520,115.394,170.614,134.594
0.257,31.921,1.557,1.557,115.296,170.516,134.629
0.258,32.010,1.592,1.592,115.231,170.458,134.647
0.259,32.054,1.626,1.626,115.195,170.432,134.650
0.260,32.069,1.656,1.656,115.183,170.435,134.642
0.261,32.100,1.681,1.681,115.190,170.458,134.623
0.262,32.151,1.700,1.700,115.211,170.497,134.596
0.263,32.217,1.711,1.711,115.242,170.545,134.564
0.264,32.288,1.715,1.715,115.277,170.596,134.528
0.265,32.358,1.713,1.713,115.312,170.644,134.492
0.266,32.420,1.706,1.706,115.342,170.685,134.456
0.267,32.470,1.695,1.696,115.364,170.714,134.423
0.268,32.509,1.684,1.684,115.375,170.733,134.390
0.269,32.542,1.671,1.672,115.373,170.740,134.358
0.270,32.579,1.661,1.661,115.354,170.734,134.327
0.271,32.631,1.653,1.653,115.316,170.716,134.296
0.273,32.706,1.649,1.649,115.256,170.684,134.265
0.274,32.808,1.652,1.651,115.171,170.637,134.233
0.275,32.940,1.659,1.659,115.058,170.576,134.201
0.276,33.106,1.673,1.672,114.915,170.499,134.168
0.277,33.305,1.691,1.690,114.742,170.407,134.134
0.278,33.531,1.713,1.712,114.544,170.303,134.099
0.279,33.775,1.739,1.737,114.329,170.192,134.065
0.280,34.030,1.768,1.766,114.104,170.077,134.033
0.281,34.288,1.799,1.798,113.875,169.962,134.003
0.282,34.541,1.833,1.833,113.650,169.851,133.975
0.283,34.781,1.869,1.869,113.435,169.747,133.951
0.284,35.000,1.905,1.907,113.237,169.656,133.932
0.285,35.190,1.942,1.944,113.063,169.580,133.918
0.286,35.343,1.978,1.981,112.921,169.523,133.910
0.287,35.460,2.011,2.015,112.810,169.485,133.907
0.288,35.545,2.042,2.046,112.728,169.464,133.907
0.290,35.603,2.069,2.073,112.670,169.457,133.907
0.291,35.640,2.090,2.094,112.633,169.460,133.906
0.292,35.664,2.106,2.109,112.613,169.471,133.901
0.293,35.684,2.114,2.115,112.606,169.486,133.890
0.294,35.711,2.115,2.113,112.609,169.504,133.870
0.295,35.746,2.109,2.103,112.617,169.521,133.840
0.296,35.792,2.097,2.087,112.627,169.533,133.797
0.297,35.850,2.081,2.068,112.636,169.540,133.741
0.298,35.916,2.062,2.047,112.640,169.540,133.674
0.299,35.985,2.043,2.026,112.637,169.535,133.606
0.300,36.052,2.024,2.008,112.625,169.526,133.540
0.301,36.113,2.007,1.994,112.602,169.513,133.485
0.302,36.170,1.993,1.986,112.564,169.498,133.446
0.303,36.228,1.984,1.987,112.510,169.481,133.430
0.304,36.305,1.982,1.997,112.437,169.463,133.443
0.305,36.412,1.985,2.016,112.343,169.446,133.492
0.306,36.561,1.993,2.041,112.225,169.429,133.582
0.308,36.756,2.005,2.071,112.085,169.414,133.715
0.309,36.986,2.022,2.104,111.927,169.400,133.883
0.310,37.243,2.042,2.140,111.757,169.388,134.075
0.311,37.515,2.066,2.177,111.581,169.376,134.282
0.312,37.792,2.093,2.212,111.406,169.364,134.496
0.313,38.063,2.121,2.246,111.236,169.353,134.708
0.314,38.318,2.152,2.276,111.079,169.342,134.908
0.315,38.545,2.183,2.301,110.939,169.331,135.086
0.316,38.734,2.215,2.322,110.823,169.320,135.235
0.317,38.875,2.244,2.338,110.735,169.308,135.345
0.318,38.969,2.272,2.350,110.676,169.296,135.416
0.319,39.023,2.295,2.356,110.641,169.285,135.457
0.320,39.046,2.314,2.357,110.626,169.275,135.471
0.321,39.056,2.327,2.353,110.626,169.267,135.465
0.322,39.079,2.333,2.344,110.638,169.263,135.445
0.323,39.112,2.331,2.329,110.657,169.262,135.418
0.324,39.149,2.320,2.308,110.680,169.266,135.389
0.326,39.184,2.303,2.284,110.701,169.276,135.363
0.327,39.211,2.282,2.260,110.717,169.292,135.348
0.328,39.234,2.260,2.235,110.723,169.315,135.348
0.329,39.264,2.238,2.214,110.718,169.341,135.361
0.330,39.306,2.219,2.198,110.698,169.367,135.386
0.331,39.362,2.205,2.188,110.662,169.391,135.422
0.332,39.435,2.198,2.188,110.605,169.408,135.465
0.333,39.528,2.201,2.199,110.527,169.416,135.515
0.334,39.645,2.216,2.222,110.424,169.411,135.570
0.335,39.789,2.243,2.258,110.293,169.390,135.628
0.336,39.965,2.279,2.304,110.133,169.350,135.686
0.337,40.175,2.323,2.358,109.941,169.288,135.744
0.338,40.418,2.373,2.417,109.719,169.203,135.801
0.339,40.686,2.427,2.479,109.478,169.101,135.856
0.340,40.969,2.483,2.541,109.226,168.986,135.911
0.341,41.256,2.540,2.603,108.972,168.862,135.966
0.343,41.538,2.594,2.660,108.727,168.735,136.021
0.344,41.805,2.645,2.711,108.499,168.607,136.078
0.345,42.048,2.691,2.754,108.298,168.485,136.136
0.346,42.256,2.731,2.789,108.133,168.372,136.196
0.347,42.423,2.765,2.817,108.014,168.274,136.259
0.348,42.547,2.792,2.836,107.948,168.193,136.325
0.349,42.641,2.811,2.847,107.928,168.132,136.393
0.350,42.723,2.824,2.850,107.942,168.090,136.463
0.351,42.806,2.828,2.845,107.977,168.067,136.534
0.352,42.889,2.823,2.832,108.023,168.064,136.604
0.353,42.972,2.809,2.812,108.066,168.080,136.673
0.354,43.053,2.786,2.783,108.094,168.115,136.741
0.355,43.137,2.755,2.748,108.095,168.170,136.805
0.356,43.240,2.716,2.708,108.056,168.243,136.865
0.357,43.380,2.672,2.664,107.967,168.336,136.920
0.358,43.570,2.625,2.617,107.820,168.446,136.970
0.359,43.804,2.576,2.569,107.627,168.571,137.014
0.361,44.073,2.527,2.522,107.397,168.705,137.052
0.362,44.364,2.480,2.477,107.144,168.844,137.085
0.363,44.666,2.437,2.435,106.877,168.985,137.112
0.364,44.968,2.399,2.399,106.609,169.121,137.132
0.365,45.257,2.367,2.368,106.350,169.250,137.147
0.366,45.522,2.342,2.344,106.113,169.367,137.155
0.367,45.750,2.322,2.324,105.909,169.468,137.157
0.368,45.929,2.307,2.309,105.748,169.548,137.152
0.369,46.060,2.296,2.298,105.632,169.607,137.142
0.370,46.149,2.289,2.291,105.555,169.648,137.125
0.371,46.204,2.285,2.286,105.510,169.673,137.104
0.372,46.238,2.283,2.284,105.491,169.684,137.079
0.373,46.268,2.283,2.283,105.492,169.685,137.049
0.374,46.304,2.284,2.284,105.507,169.677,137.016
0.375,46.348,2.286,2.286,105.528,169.664,136.981
0.376,46.395,2.289,2.288,105.550,169.648,136.943
0.378,46.441,2.292,2.292,105.567,169.631,136.904
0.379,46.484,2.297,2.296,105.573,169.615,136.863
0.380,46.529,2.302,2.301,105.568,169.603,136.821
0.381,46.577,2.307,2.307,105.552,169.596,136.776
0.382,46.632,2.314,2.314,105.527,169.594,136.728
0.383,46.695,2.321,2.321,105.493,169.600,136.675
0.384,46.768,2.329,2.329,105.450,169.615,136.618
0.385,46.852,2.338,2.338,105.400,169.640,136.554
0.386,46.948,2.347,2.347,105.344,169.676,136.485
0.387,47.059,2.358,2.358,105.282,169.725,136.408
0.388,47.184,2.369,2.369,105.215,169.789,136.322
0.389,47.324,2.382,2.382,105.145,169.865,136.230
0.390,47.473,2.396,2.396,105.072,169.952,136.132
0.391,47.628,2.411,2.411,105.000,170.046,136.032
0.392,47.783,2.427,2.427,104.930,170.142,135.932
0.393,47.935,2.445,2.445,104.864,170.237,135.835
0.394,48.077,2.465,2.465,104.803,170.328,135.743
0.396,48.205,2.486,2.486,104.751,170.410,135.660
0.397,48.315,2.507,2.507,104.708,170.481,135.587
0.398,48.402,2.527,2.527,104.677,170.536,135.528
0.399,48.461,2.546,2.546,104.660,170.572,135.485
0.400,48.497,2.561,2.561,104.653,170.592,135.456
0.401,48.516,2.573,2.573,104.655,170.601,135.439
0.402,48.527,2.581,2.580,104.661,170.605,135.431
0.403,48.534,2.582,2.582,104.667,170.608,135.428
0.404,48.543,2.577,2.577,104.670,170.616,135.429
0.405,48.562,2.565,2.565,104.665,170.635,135.430
0.406,48.600,2.547,2.547,104.651,170.670,135.428
0.407,48.663,2.525,2.525,104.621,170.725,135.420
0.408,48.759,2.501,2.501,104.574,170.808,135.403
0.409,48.893,2.477,2.477,104.507,170.919,135.375
0.410,49.058,2.455,2.455,104.422,171.056,135.338
0.411,49.249,2.436,2.436,104.324,171.213,135.292
0.413,49.458,2.422,2.422,104.215,171.383,135.238
0.414,49.678,2.416,2.416,104.100,171.562,135.178
0.415,49.904,2.419,2.419,103.983,171.743,135.113
0.416,50.128,2.432,2.432,103.866,171.922,135.044
0.417,50.344,2.451,2.451,103.754,172.092,134.973
0.418,50.545,2.477,2.477,103.651,172.249,134.901
0.419,50.725,2.507,2.507,103.559,172.385,134.829
0.420,50.882,2.539,2.539,103.480,172.501,134.757
0.421,51.017,2.571,2.571,103.414,172.597,134.688
0.422,51.133,2.602,2.602,103.359,172.674,134.622
0.423,51.232,2.631,2.631,103.314,172.736,134.560
0.424,51.315,2.654,2.654,103.279,172.784,134.502
0.425,51.383,2.671,2.671,103.252,172.820,134.450
0.426,51.439,2.682,2.682,103.231,172.846,134.405
0.427,51.482,2.689,2.689,103.217,172.863,134.368
0.428,51.515,2.691,2.691,103.208,172.873,134.339
0.429,51.536,2.690,2.690,103.203,172.879,134.319
0.431,51.548,2.687,2.687,103.201,172.882,134.308
0.432,51.553,2.682,2.682,103.202,172.882,134.303
