"T","Distance","Radius","FreeRadius","X","Y","Z"
0.000,0.000,2.459,2.459,183.074,236.259,205.429
0.001,0.045,2.486,2.486,183.073,236.301,205.413
0.003,0.089,2.513,2.513,183.072,236.343,205.397
0.004,0.135,2.542,2.542,183.072,236.385,205.381
0.006,0.182,2.572,2.573,183.073,236.429,205.364
0.007,0.230,2.605,2.606,183.075,236.473,205.346
0.008,0.280,2.642,2.642,183.077,236.519,205.327
0.010,0.332,2.683,2.683,183.081,236.567,205.307
0.011,0.387,2.728,2.728,183.087,236.617,205.285
0.013,0.445,2.778,2.777,183.094,236.670,205.261
0.014,0.507,2.830,2.829,183.103,236.725,205.235
0.015,0.572,2.886,2.884,183.115,236.783,205.207
0.017,0.642,2.942,2.940,183.129,236.844,205.177
0.018,0.717,2.999,2.997,183.146,236.909,205.144
0.020,0.797,3.055,3.055,183.166,236.978,205.108
0.021,0.882,3.110,3.111,183.188,237.051,205.069
0.022,0.974,3.164,3.167,183.214,237.128,205.026
0.024,1.072,3.219,3.223,183.243,237.209,204.981
0.025,1.173,3.275,3.281,183.275,237.292,204.932
0.027,1.277,3.334,3.340,183.309,237.377,204.882
0.028,1.383,3.398,3.403,183.344,237.462,204.830
0.029,1.489,3.467,3.470,183.380,237.546,204.776
0.031,1.594,3.544,3.542,183.417,237.628,204.721
0.032,1.698,3.626,3.618,183.454,237.707,204.666
0.034,1.798,3.711,3.697,183.490,237.782,204.610
0.035,1.893,3.794,3.774,183.526,237.851,204.555
0.036,1.983,3.870,3.849,183.560,237.914,204.500
0.038,2.067,3.935,3.917,183.592,237.969,204.446
0.039,2.143,3.984,3.976,183.622,238.016,204.394
0.041,2.212,4.014,4.024,183.650,238.053,204.343
0.042,2.271,4.023,4.059,183.673,238.079,204.295
0.043,2.323,4.014,4.082,183.694,238.093,204.249
0.045,2.369,3.993,4.096,183.709,238.096,204.207
0.046,2.410,3.965,4.102,183.721,238.090,204.167
0.048,2.448,3.936,4.103,183.728,238.079,204.132
0.049,2.483,3.910,4.101,183.729,238.064,204.100
0.050,2.515,3.894,4.097,183.726,238.048,204.073
0.052,2.543,3.890,4.094,183.716,238.034,204.050
0.053,2.569,3.898,4.090,183.701,238.024,204.033
0.055,2.594,3.913,4.085,183.680,238.020,204.020
0.056,2.623,3.930,4.078,183.652,238.026,204.014
0.057,2.662,3.947,4.066,183.617,238.043,204.013
0.059,2.714,3.959,4.050,183.575,238.074,204.019
0.060,2.784,3.963,4.027,183.526,238.122,204.031
0.062,2.874,3.954,3.996,183.469,238.188,204.051
0.063,2.986,3.935,3.961,183.404,238.277,204.077
0.064,3.125,3.909,3.923,183.331,238.389,204.112
0.066,3.289,3.880,3.886,183.249,238.525,204.154
0.067,3.476,3.852,3.853,183.161,238.683,204.201
0.069,3.682,3.829,3.828,183.068,238.859,204.254
0.070,3.905,3.814,3.813,182.969,239.051,204.310
0.071,4.140,3.812,3.813,182.867,239.255,204.368
0.073,4.385,3.823,3.826,182.762,239.468,204.427
0.074,4.636,3.844,3.850,182.655,239.688,204.486
0.076,4.890,3.872,3.881,182.548,239.911,204.543
0.077,5.144,3.904,3.917,182.442,240.135,204.597
0.078,5.394,3.938,3.952,182.337,240.356,204.647
0.080,5.637,3.970,3.986,182.235,240.572,204.692
0.081,5.870,3.997,4.013,182.137,240.780,204.729
0.083,6.089,4.018,4.034,182.043,240.976,204.759
0.084,6.292,4.035,4.049,181.956,241.158,204.780
0.085,6.476,4.049,4.060,181.876,241.323,204.789
0.087,6.639,4.063,4.071,181.803,241.469,204.788
0.088,6.783,4.077,4.083,181.738,241.597,204.777
0.090,6.909,4.095,4.097,181.679,241.707,204.757
0.091,7.020,4.117,4.117,181.627,241.801,204.731
0.092,7.116,4.145,4.143,181.581,241.879,204.698
0.094,7.201,4.178,4.175,181.541,241.944,204.661
0.095,7.274,4.214,4.211,181.507,241.995,204.621
0.097,7.338,4.251,4.248,181.477,242.033,204.579
0.098,7.394,4.289,4.287,181.452,242.060,204.537
0.099,7.443,4.325,4.324,181.430,242.077,204.497
0.101,7.486,4.358,4.358,181.413,242.084,204.458
0.102,7.523,4.387,4.389,181.399,242.083,204.423
0.104,7.556,4.411,4.414,181.388,242.074,204.394
0.105,7.585,4.431,4.434,181.379,242.059,204.371
0.106,7.611,4.444,4.449,181.373,242.038,204.356
0.108,7.638,4.453,4.457,181.368,242.013,204.349
0.109,7.666,4.456,4.459,181.365,241.985,204.351
0.111,7.696,4.453,4.454,181.363,241.956,204.358
0.112,7.727,4.445,4.442,181.362,241.927,204.369
0.113,7.758,4.431,4.424,181.361,241.899,204.383
0.115,7.786,4.415,4.404,181.361,241.875,204.397
0.116,7.810,4.399,4.384,181.361,241.857,204.411
0.118,7.827,4.383,4.368,181.361,241.844,204.423
0.119,7.835,4.371,4.358,181.361,241.840,204.431
0.120,7.841,4.364,4.358,181.359,241.845,204.432
0.122,7.859,4.365,4.371,181.357,241.862,204.427
0.123,7.892,4.372,4.396,181.354,241.891,204.413
0.125,7.942,4.386,4.430,181.349,241.935,204.388
0.126,8.013,4.404,4.470,181.342,241.994,204.351
0.127,8.106,4.424,4.513,181.334,242.072,204.299
0.129,8.223,4.445,4.556,181.323,242.168,204.233
0.130,8.362,4.465,4.594,181.310,242.280,204.153
0.132,8.519,4.483,4.625,181.295,242.407,204.061
0.133,8.691,4.497,4.647,181.280,242.545,203.958
0.134,8.875,4.510,4.662,181.263,242.690,203.848
0.136,9.065,4.522,4.672,181.247,242.841,203.732
0.137,9.260,4.534,4.680,181.231,242.993,203.613
0.139,9.455,4.550,4.688,181.215,243.145,203.491
0.140,9.646,4.569,4.697,181.200,243.293,203.370
0.141,9.831,4.593,4.712,181.187,243.434,203.252
0.143,10.005,4.623,4.732,181.176,243.565,203.138
0.144,10.165,4.657,4.757,181.167,243.683,203.030
0.146,10.308,4.692,4.786,181.161,243.786,202.931
0.147,10.430,4.725,4.816,181.158,243.870,202.843
0.148,10.529,4.754,4.847,181.158,243.932,202.767
0.150,10.601,4.775,4.876,181.163,243.970,202.706
0.151,10.651,4.786,4.903,181.171,243.986,202.659
0.153,10.686,4.784,4.925,181.182,243.983,202.625
0.154,10.716,4.772,4.942,181.193,243.966,202.603
0.155,10.748,4.753,4.956,181.205,243.938,202.592
0.157,10.783,4.731,4.966,181.216,243.905,202.589
0.158,10.820,4.709,4.973,181.225,243.870,202.594
0.160,10.854,4.691,4.977,181.230,243.838,202.605
0.161,10.884,4.681,4.979,181.232,243.813,202.621
0.162,10.908,4.682,4.980,181.227,243.799,202.640
0.164,10.931,4.694,4.979,181.217,243.800,202.661
0.165,10.967,4.712,4.974,181.198,243.821,202.682
0.167,11.023,4.733,4.964,181.171,243.866,202.703
0.168,11.107,4.754,4.949,181.134,243.939,202.722
0.169,11.224,4.769,4.927,181.086,244.044,202.736
0.171,11.378,4.776,4.896,181.026,244.186,202.746
0.172,11.570,4.771,4.856,180.953,244.364,202.751
0.174,11.797,4.754,4.809,180.870,244.574,202.752
0.175,12.051,4.729,4.759,180.777,244.812,202.750
0.176,12.330,4.703,4.714,180.675,245.071,202.748
0.178,12.628,4.681,4.678,180.566,245.349,202.747
0.179,12.940,4.667,4.659,180.451,245.639,202.747
0.181,13.262,4.668,4.661,180.331,245.937,202.752
0.182,13.588,4.690,4.692,180.207,246.238,202.761
0.183,13.914,4.733,4.753,180.080,246.539,202.776
0.185,14.236,4.792,4.836,179.952,246.833,202.800
0.186,14.549,4.861,4.934,179.824,247.116,202.832
0.188,14.848,4.932,5.037,179.696,247.383,202.876
0.189,15.131,4.999,5.137,179.571,247.631,202.932
0.190,15.393,5.054,5.225,179.449,247.853,203.001
0.192,15.634,5.091,5.293,179.331,248.045,203.085
0.193,15.853,5.105,5.334,179.219,248.205,203.184
0.195,16.054,5.100,5.351,179.113,248.335,203.294
0.196,16.239,5.081,5.351,179.013,248.438,203.412
0.197,16.411,5.057,5.340,178.919,248.517,203.532
0.199,16.570,5.033,5.323,178.832,248.574,203.652
0.200,16.716,5.016,5.306,178.751,248.612,203.768
0.202,16.847,5.012,5.296,178.678,248.634,203.875
0.203,16.963,5.027,5.297,178.612,248.643,203.969
0.204,17.060,5.058,5.309,178.554,248.641,204.047
0.206,17.138,5.100,5.328,178.504,248.632,204.105
0.207,17.193,5.146,5.349,178.462,248.617,204.139
0.209,17.231,5.191,5.368,178.429,248.600,204.145
0.210,17.271,5.228,5.381,178.405,248.583,204.118
0.211,17.336,5.251,5.384,178.389,248.570,204.056
0.213,17.439,5.254,5.373,178.383,248.562,203.954
0.214,17.583,5.238,5.349,178.387,248.563,203.810
0.216,17.765,5.209,5.316,178.399,248.570,203.628
0.217,17.980,5.172,5.281,178.419,248.585,203.415
0.218,18.223,5.134,5.246,178.444,248.605,203.174
0.220,18.489,5.100,5.219,178.475,248.629,202.911
0.221,18.771,5.077,5.203,178.511,248.657,202.633
0.223,19.065,5.070,5.203,178.549,248.688,202.343
0.224,19.364,5.082,5.222,178.590,248.721,202.048
0.225,19.665,5.109,5.256,178.631,248.755,201.752
0.227,19.960,5.147,5.299,178.673,248.789,201.462
0.228,20.244,5.192,5.348,178.713,248.822,201.182
0.230,20.513,5.241,5.399,178.751,248.853,200.919
0.231,20.760,5.289,5.446,178.786,248.882,200.676
0.232,20.979,5.332,5.487,178.816,248.907,200.460
0.234,21.166,5.367,5.517,178.841,248.927,200.275
0.235,21.316,5.396,5.539,178.859,248.942,200.127
0.237,21.431,5.418,5.552,178.872,248.952,200.014
0.238,21.513,5.435,5.559,178.879,248.958,199.932
0.239,21.566,5.448,5.562,178.882,248.960,199.879
0.241,21.594,5.457,5.561,178.881,248.959,199.851
0.242,21.602,5.463,5.559,178.877,248.955,199.845
0.244,21.617,5.467,5.556,178.871,248.950,199.857
0.245,21.646,5.469,5.553,178.864,248.944,199.884
0.246,21.687,5.469,5.551,178.856,248.938,199.924
0.248,21.736,5.466,5.549,178.849,248.931,199.972
0.249,21.790,5.459,5.548,178.842,248.926,200.026
0.251,21.847,5.448,5.547,178.837,248.922,200.082
0.252,21.902,5.433,5.548,178.835,248.921,200.137
0.254,21.952,5.413,5.549,178.836,248.923,200.187
0.255,21.996,5.389,5.552,178.840,248.928,200.230
0.256,22.031,5.364,5.556,178.850,248.937,200.263
0.258,22.059,5.338,5.561,178.864,248.950,200.283
0.259,22.083,5.315,5.568,178.882,248.965,200.291
0.261,22.110,5.296,5.575,178.902,248.981,200.286
0.262,22.142,5.282,5.584,178.925,248.996,200.269
0.263,22.184,5.276,5.593,178.948,249.010,200.238
0.265,22.236,5.279,5.604,178.972,249.022,200.193
0.266,22.299,5.288,5.617,178.996,249.028,200.134
0.268,22.376,5.304,5.633,179.018,249.030,200.061
0.269,22.466,5.325,5.651,179.038,249.025,199.973
0.270,22.571,5.351,5.673,179.055,249.011,199.871
0.272,22.692,5.379,5.698,179.068,248.989,199.753
0.273,22.830,5.410,5.729,179.077,248.955,199.619
0.275,22.986,5.443,5.764,179.081,248.910,199.469
0.276,23.162,5.478,5.806,179.078,248.852,199.304
0.277,23.358,5.516,5.855,179.068,248.779,199.121
0.279,23.575,5.557,5.912,179.051,248.693,198.924
0.280,23.807,5.602,5.979,179.028,248.598,198.713
0.282,24.052,5.651,6.056,179.000,248.497,198.492
0.283,24.305,5.706,6.145,178.967,248.395,198.262
0.284,24.563,5.766,6.244,178.930,248.295,198.028
0.286,24.821,5.829,6.349,178.890,248.202,197.790
0.287,25.077,5.893,6.452,178.847,248.118,197.552
0.289,25.327,5.957,6.546,178.803,248.049,197.316
0.290,25.569,6.017,6.623,178.758,247.997,197.084
0.291,25.800,6.073,6.678,178.713,247.968,196.859
0.293,26.019,6.121,6.702,178.669,247.963,196.644
0.294,26.228,6.160,6.691,178.627,247.989,196.441
0.296,26.430,6.188,6.647,178.587,248.047,196.252
0.297,26.630,6.204,6.576,178.550,248.143,196.080
0.298,26.838,6.206,6.483,178.516,248.280,195.928
0.300,27.061,6.194,6.376,178.488,248.459,195.797
0.301,27.305,6.166,6.260,178.463,248.674,195.684
0.303,27.570,6.120,6.141,178.441,248.920,195.590
0.304,27.852,6.056,6.026,178.424,249.191,195.512
0.305,28.151,5.975,5.916,178.409,249.482,195.449
0.307,28.460,5.884,5.813,178.396,249.787,195.399
0.308,28.776,5.786,5.718,178.386,250.101,195.362
0.310,29.094,5.687,5.633,178.378,250.418,195.335
0.311,29.409,5.592,5.558,178.372,250.733,195.318
0.312,29.716,5.506,5.494,178.367,251.039,195.309
0.314,30.009,5.434,5.442,178.362,251.332,195.306
0.315,30.282,5.377,5.402,178.359,251.605,195.308
0.317,30.532,5.333,5.373,178.355,251.854,195.313
0.318,30.750,5.302,5.352,178.352,252.073,195.321
0.319,30.933,5.280,5.338,178.348,252.256,195.329
0.321,31.077,5.267,5.330,178.343,252.400,195.337
0.322,31.185,5.259,5.325,178.339,252.507,195.344
0.324,31.260,5.255,5.321,178.333,252.582,195.350
0.325,31.307,5.253,5.319,178.328,252.627,195.355
0.326,31.328,5.254,5.317,178.323,252.648,195.359
0.328,31.334,5.257,5.317,178.318,252.648,195.362
0.329,31.352,5.263,5.318,178.314,252.630,195.363
0.331,31.384,5.271,5.322,178.310,252.598,195.363
0.332,31.426,5.282,5.328,178.308,252.557,195.361
0.333,31.473,5.296,5.338,178.306,252.509,195.357
0.335,31.523,5.312,5.350,178.306,252.460,195.351
0.336,31.572,5.330,5.365,178.308,252.411,195.343
0.338,31.617,5.346,5.379,178.311,252.368,195.332
0.339,31.653,5.361,5.391,178.317,252.335,195.319
0.340,31.681,5.372,5.399,178.324,252.314,195.303
0.342,31.702,5.377,5.402,178.334,252.309,195.285
0.343,31.730,5.375,5.397,178.347,252.320,195.263
0.345,31.770,5.364,5.383,178.364,252.348,195.238
0.346,31.825,5.345,5.361,178.384,252.390,195.210
0.347,31.895,5.318,5.331,178.409,252.447,195.178
0.349,31.980,5.285,5.294,178.438,252.518,195.143
0.350,32.079,5.245,5.251,178.473,252.602,195.103
0.352,32.194,5.201,5.204,178.514,252.700,195.059
0.353,32.322,5.152,5.153,178.562,252.809,195.011
0.354,32.465,5.100,5.099,178.616,252.930,194.958
0.356,32.622,5.045,5.043,178.677,253.062,194.900
0.357,32.792,4.989,4.987,178.747,253.204,194.837
0.359,32.976,4.933,4.931,178.825,253.356,194.769
0.360,33.173,4.877,4.876,178.911,253.518,194.695
0.361,33.384,4.824,4.823,179.007,253.688,194.616
0.363,33.608,4.774,4.774,179.113,253.865,194.531
0.364,33.843,4.729,4.729,179.228,254.049,194.440
0.366,34.086,4.689,4.689,179.349,254.238,194.346
0.367,34.335,4.655,4.656,179.477,254.428,194.249
0.368,34.586,4.629,4.630,179.608,254.618,194.150
0.370,34.836,4.612,4.613,179.741,254.806,194.051
0.371,35.084,4.605,4.605,179.874,254.990,193.952
0.373,35.325,4.609,4.609,180.007,255.167,193.856
0.374,35.558,4.624,4.624,180.137,255.335,193.762
0.375,35.778,4.652,4.652,180.262,255.493,193.672
0.377,35.984,4.688,4.687,180.381,255.638,193.587
0.378,36.172,4.729,4.728,180.492,255.768,193.509
0.380,36.340,4.770,4.769,180.594,255.881,193.438
0.381,36.485,4.809,4.808,180.685,255.974,193.376
0.382,36.603,4.840,4.840,180.763,256.046,193.324
0.384,36.694,4.861,4.861,180.827,256.095,193.282
0.385,36.758,4.868,4.869,180.877,256.121,193.252
0.387,36.802,4.863,4.865,180.916,256.128,193.230
0.388,36.835,4.849,4.852,180.945,256.119,193.218
0.389,36.867,4.830,4.833,180.966,256.097,193.212
0.391,36.903,4.808,4.811,180.983,256.064,193.212
0.392,36.944,4.786,4.788,180.996,256.026,193.216
0.394,36.989,4.768,4.769,181.009,255.984,193.224
0.395,37.034,4.757,4.755,181.023,255.942,193.234
0.396,37.078,4.752,4.747,181.041,255.903,193.245
0.398,37.120,4.752,4.744,181.064,255.870,193.256
0.399,37.160,4.755,4.746,181.096,255.847,193.265
0.401,37.204,4.761,4.751,181.138,255.837,193.271
0.402,37.258,4.767,4.759,181.192,255.842,193.273
0.403,37.332,4.773,4.770,181.261,255.867,193.269
0.405,37.430,4.777,4.781,181.346,255.915,193.259
0.406,37.556,4.778,4.794,181.449,255.985,193.242
0.408,37.706,4.781,4.810,181.566,256.076,193.219
0.409,37.877,4.788,4.830,181.696,256.185,193.190
0.410,38.065,4.801,4.856,181.834,256.307,193.157
0.412,38.267,4.823,4.889,181.980,256.442,193.120
0.413,38.477,4.857,4.930,182.130,256.585,193.081
0.415,38.694,4.905,4.980,182.281,256.733,193.039
0.416,38.911,4.967,5.040,182.431,256.885,192.997
0.417,39.126,5.040,5.105,182.578,257.035,192.954
0.419,39.333,5.119,5.174,182.719,257.183,192.912
0.420,39.531,5.199,5.242,182.850,257.324,192.871
0.422,39.713,5.276,5.307,182.971,257.455,192.833
0.423,39.877,5.345,5.366,183.077,257.575,192.798
0.424,40.017,5.403,5.414,183.166,257.679,192.767
0.426,40.131,5.445,5.450,183.237,257.765,192.740
0.427,40.217,5.474,5.474,183.287,257.831,192.720
0.429,40.276,5.491,5.490,183.318,257.878,192.704
0.430,40.313,5.498,5.497,183.333,257.910,192.693
0.431,40.332,5.499,5.497,183.334,257.928,192.686
0.433,40.344,5.494,5.493,183.323,257.934,192.683
0.434,40.364,5.486,5.486,183.303,257.930,192.682
0.436,40.393,5.478,5.477,183.277,257.919,192.685
0.437,40.428,5.469,5.468,183.246,257.903,192.690
0.438,40.467,5.461,5.459,183.213,257.884,192.697
0.440,40.507,5.454,5.451,183.180,257.864,192.705
0.441,40.543,5.449,5.446,183.150,257.844,192.714
0.443,40.574,5.446,5.443,183.125,257.829,192.723
0.444,40.597,5.446,5.445,183.108,257.818,192.733
0.445,40.609,5.450,5.452,183.100,257.816,192.741
0.447,40.620,5.457,5.464,183.105,257.823,192.749
0.448,40.647,5.470,5.481,183.123,257.841,192.756
0.450,40.691,5.487,5.503,183.155,257.871,192.761
0.451,40.750,5.510,5.530,183.199,257.911,192.764
0.452,40.823,5.539,5.561,183.254,257.959,192.765
0.454,40.909,5.575,5.597,183.318,258.016,192.765
0.455,41.006,5.618,5.638,183.391,258.080,192.762
0.457,41.112,5.668,5.682,183.470,258.149,192.757
0.458,41.225,5.721,5.729,183.555,258.224,192.749
0.459,41.345,5.777,5.779,183.645,258.303,192.740
0.461,41.469,5.832,5.829,183.738,258.384,192.727
0.462,41.596,5.884,5.880,183.833,258.468,192.712
0.464,41.725,5.932,5.930,183.928,258.553,192.694
0.465,41.854,5.972,5.978,184.023,258.637,192.672
0.466,41.981,6.004,6.024,184.116,258.721,192.648
0.468,42.106,6.029,6.068,184.205,258.802,192.620
0.469,42.226,6.050,6.108,184.291,258.881,192.589
0.471,42.341,6.067,6.146,184.371,258.956,192.554
0.472,42.453,6.083,6.181,184.448,259.028,192.517
0.473,42.561,6.099,6.212,184.520,259.098,192.476
0.475,42.666,6.117,6.240,184.588,259.164,192.433
0.476,42.768,6.139,6.265,184.653,259.228,192.388
0.478,42.866,6.164,6.286,184.714,259.290,192.340
0.479,42.963,6.190,6.304,184.772,259.348,192.290
0.480,43.057,6.216,6.318,184.827,259.405,192.238
0.482,43.149,6.241,6.329,184.879,259.459,192.184
0.483,43.239,6.264,6.336,184.928,259.511,192.129
0.485,43.328,6.283,6.340,184.975,259.561,192.073
0.486,43.415,6.297,6.341,185.019,259.609,192.016
0.487,43.501,6.307,6.339,185.062,259.655,191.958
0.489,43.585,6.312,6.336,185.103,259.700,191.899
0.490,43.668,6.315,6.331,185.142,259.743,191.840
0.492,43.749,6.316,6.325,185.180,259.784,191.781
0.493,43.829,6.315,6.319,185.216,259.824,191.722
0.494,43.907,6.313,6.314,185.250,259.862,191.663
0.496,43.983,6.312,6.311,185.283,259.899,191.605
0.497,44.057,6.311,6.309,185.314,259.934,191.548
0.499,44.128,6.311,6.308,185.343,259.967,191.493
0.500,44.196,6.311,6.309,185.371,259.999,191.439
0.501,44.261,6.312,6.310,185.396,260.029,191.388
0.503,44.323,6.313,6.312,185.420,260.057,191.338
0.504,44.381,6.315,6.315,185.442,260.084,191.291
0.506,44.435,6.317,6.318,185.462,260.109,191.247
0.507,44.485,6.320,6.321,185.480,260.133,191.207
0.508,44.531,6.323,6.324,185.496,260.154,191.170
0.510,44.572,6.326,6.327,185.509,260.174,191.136
0.511,44.609,6.329,6.330,185.521,260.192,191.107
0.513,44.640,6.332,6.332,185.530,260.209,191.082
0.514,44.667,6.335,6.335,185.538,260.223,191.061
0.515,44.689,6.337,6.337,185.544,260.236,191.044
0.517,44.708,6.339,6.339,185.548,260.247,191.029
0.518,44.723,6.340,6.340,185.552,260.257,191.018
0.520,44.735,6.341,6.341,185.555,260.264,191.009
0.521,44.744,6.342,6.342,185.556,260.270,191.002
0.522,44.751,6.342,6.342,185.558,260.274,190.997
0.524,44.755,6.342,6.342,185.559,260.277,190.993
0.525,44.758,6.341,6.341,185.560,260.277,190.991
0.527,44.760,6.340,6.340,185.562,260.276,190.990
0.528,44.764,6.339,6.338,185.564,260.273,190.989
0.529,44.769,6.338,6.336,185.566,260.269,190.988
0.531,44.777,6.335,6.333,185.570,260.262,190.987
0.532,44.786,6.331,6.330,185.575,260.254,190.986
0.534,44.798,6.327,6.325,185.581,260.245,190.983
0.535,44.811,6.320,6.320,185.588,260.234,190.981
0.536,44.824,6.313,6.314,185.595,260.223,190.977
0.538,44.838,6.304,6.308,185.603,260.213,190.974
0.539,44.851,6.296,6.302,185.611,260.203,190.970
0.541,44.863,6.290,6.296,185.618,260.194,190.966
0.542,44.873,6.285,6.292,185.624,260.187,190.962
0.543,44.880,6.284,6.290,185.629,260.183,190.958
0.545,44.885,6.288,6.291,185.632,260.182,190.954
0.546,44.890,6.298,6.294,185.633,260.185,190.951
0.548,44.898,6.312,6.301,185.632,260.192,190.948
0.549,44.911,6.326,6.310,185.628,260.204,190.945
0.550,44.930,6.339,6.320,185.621,260.222,190.944
0.552,44.955,6.347,6.331,185.610,260.245,190.943
0.553,44.989,6.346,6.342,185.596,260.276,190.943
0.555,45.030,6.334,6.353,185.577,260.313,190.944
0.556,45.078,6.307,6.361,185.556,260.355,190.946
0.557,45.128,6.265,6.367,185.533,260.399,190.949
0.559,45.178,6.214,6.372,185.510,260.444,190.952
0.560,45.227,6.160,6.376,185.488,260.487,190.955
0.562,45.270,6.110,6.378,185.468,260.525,190.958
0.563,45.306,6.070,6.380,185.451,260.557,190.961
0.564,45.332,6.045,6.381,185.439,260.580,190.963
0.566,45.345,6.041,6.383,185.433,260.591,190.964
0.567,45.347,6.063,6.385,185.434,260.588,190.965
0.569,45.368,6.102,6.384,185.443,260.570,190.964
0.570,45.410,6.150,6.380,185.463,260.533,190.961
0.571,45.475,6.200,6.369,185.493,260.475,190.957
