"T","Distance","Radius","FreeRadius","X","Y","Z"
0.000,0.000,2.459,2.459,183.074,236.259,205.429
0.002,0.052,2.491,2.491,183.073,236.308,205.410
0.003,0.105,2.523,2.523,183.072,236.357,205.392
0.005,0.159,2.558,2.558,183.073,236.407,205.372
0.006,0.215,2.596,2.595,183.074,236.459,205.352
0.008,0.273,2.637,2.637,183.077,236.513,205.330
0.010,0.334,2.684,2.684,183.081,236.569,205.306
0.011,0.399,2.737,2.737,183.088,236.628,205.280
0.013,0.468,2.795,2.795,183.097,236.690,205.252
0.014,0.542,2.857,2.858,183.110,236.756,205.220
0.016,0.622,2.923,2.924,183.125,236.827,205.186
0.018,0.709,2.990,2.991,183.144,236.902,205.147
0.019,0.802,3.058,3.059,183.167,236.983,205.105
0.021,0.904,3.126,3.126,183.194,237.069,205.059
0.023,1.014,3.194,3.192,183.226,237.161,205.008
0.024,1.130,3.262,3.259,183.262,237.257,204.953
0.026,1.252,3.332,3.328,183.300,237.356,204.894
0.027,1.375,3.404,3.400,183.341,237.456,204.833
0.029,1.500,3.480,3.478,183.384,237.554,204.770
0.031,1.623,3.561,3.561,183.427,237.650,204.706
0.032,1.743,3.646,3.651,183.470,237.741,204.641
0.034,1.857,3.731,3.744,183.512,237.825,204.576
0.035,1.965,3.812,3.834,183.553,237.901,204.511
0.037,2.064,3.883,3.918,183.591,237.967,204.448
0.039,2.153,3.940,3.990,183.626,238.022,204.387
0.040,2.231,3.977,4.047,183.657,238.062,204.328
0.042,2.297,3.992,4.084,183.684,238.087,204.273
0.043,2.353,3.987,4.104,183.704,238.096,204.221
0.045,2.403,3.969,4.111,183.719,238.092,204.174
0.047,2.448,3.946,4.107,183.728,238.079,204.132
0.048,2.489,3.922,4.099,183.729,238.061,204.095
0.050,2.525,3.905,4.088,183.723,238.043,204.065
0.051,2.556,3.901,4.080,183.709,238.028,204.040
0.053,2.585,3.910,4.074,183.687,238.020,204.024
0.055,2.618,3.925,4.067,183.656,238.024,204.014
0.056,2.663,3.943,4.058,183.616,238.043,204.013
0.058,2.726,3.956,4.044,183.565,238.082,204.021
0.059,2.815,3.961,4.022,183.505,238.144,204.038
0.061,2.932,3.952,3.990,183.434,238.234,204.064
0.063,3.083,3.927,3.948,183.352,238.355,204.101
0.064,3.270,3.893,3.902,183.258,238.510,204.149
0.066,3.488,3.857,3.857,183.155,238.694,204.205
0.068,3.733,3.824,3.822,183.045,238.904,204.267
0.069,3.999,3.803,3.800,182.927,239.133,204.333
0.071,4.281,3.799,3.799,182.806,239.378,204.402
0.072,4.574,3.817,3.823,182.681,239.633,204.471
0.074,4.871,3.853,3.865,182.556,239.895,204.539
0.076,5.169,3.900,3.919,182.431,240.157,204.602
0.077,5.460,3.952,3.978,182.309,240.416,204.660
0.079,5.741,4.003,4.034,182.191,240.666,204.709
0.080,6.006,4.045,4.079,182.079,240.902,204.749
0.082,6.250,4.074,4.108,181.974,241.121,204.776
0.084,6.469,4.091,4.121,181.879,241.317,204.789
0.085,6.659,4.101,4.124,181.794,241.487,204.787
0.087,6.823,4.108,4.124,181.719,241.632,204.772
0.088,6.963,4.116,4.126,181.653,241.754,204.745
0.090,7.083,4.133,4.135,181.597,241.854,204.710
0.092,7.186,4.160,4.158,181.548,241.933,204.668
0.093,7.273,4.200,4.196,181.507,241.994,204.621
0.095,7.347,4.248,4.242,181.472,242.038,204.572
0.096,7.411,4.298,4.293,181.444,242.067,204.523
0.098,7.465,4.347,4.343,181.421,242.082,204.476
0.100,7.511,4.389,4.388,181.403,242.084,204.434
0.101,7.551,4.420,4.421,181.389,242.076,204.398
0.103,7.585,4.437,4.440,181.379,242.058,204.370
0.105,7.616,4.443,4.447,181.372,242.034,204.354
0.106,7.647,4.440,4.444,181.367,242.003,204.349
0.108,7.681,4.431,4.436,181.364,241.969,204.354
0.109,7.717,4.420,4.423,181.362,241.935,204.365
0.111,7.754,4.410,4.410,181.361,241.902,204.381
0.113,7.787,4.402,4.399,181.361,241.874,204.398
0.114,7.813,4.398,4.390,181.361,241.853,204.414
0.116,7.830,4.397,4.385,181.361,241.841,204.427
0.117,7.836,4.398,4.385,181.360,241.842,204.432
0.119,7.851,4.401,4.390,181.358,241.856,204.429
0.121,7.887,4.405,4.401,181.354,241.888,204.414
0.122,7.947,4.410,4.419,181.348,241.940,204.385
0.124,8.034,4.416,4.444,181.340,242.014,204.338
0.125,8.153,4.423,4.473,181.329,242.112,204.272
0.127,8.304,4.433,4.507,181.315,242.235,204.185
0.129,8.483,4.446,4.543,181.298,242.379,204.081
0.130,8.683,4.464,4.581,181.280,242.539,203.963
0.132,8.898,4.487,4.619,181.261,242.710,203.833
0.133,9.123,4.515,4.655,181.242,242.887,203.696
0.135,9.351,4.547,4.690,181.223,243.066,203.555
0.137,9.578,4.581,4.723,181.205,243.241,203.413
0.138,9.797,4.614,4.754,181.189,243.409,203.273
0.140,10.002,4.646,4.780,181.176,243.564,203.138
0.141,10.189,4.675,4.803,181.166,243.701,203.013
0.143,10.350,4.699,4.822,181.159,243.816,202.900
0.145,10.482,4.718,4.838,181.158,243.905,202.802
0.146,10.579,4.733,4.853,181.161,243.961,202.723
0.148,10.643,4.743,4.867,181.170,243.985,202.665
0.150,10.685,4.750,4.883,181.182,243.983,202.625
0.151,10.720,4.753,4.902,181.196,243.961,202.600
0.153,10.759,4.753,4.925,181.209,243.926,202.590
0.154,10.801,4.750,4.950,181.221,243.886,202.591
0.156,10.842,4.744,4.974,181.229,243.847,202.602
0.158,10.878,4.736,4.993,181.232,243.815,202.619
0.159,10.907,4.726,5.004,181.227,243.798,202.641
0.161,10.936,4.715,5.003,181.213,243.803,202.666
0.162,10.984,4.704,4.986,181.188,243.836,202.691
0.164,11.065,4.692,4.955,181.151,243.904,202.714
0.166,11.188,4.682,4.913,181.099,244.015,202.733
0.167,11.362,4.675,4.866,181.031,244.174,202.745
0.169,11.588,4.673,4.818,180.946,244.383,202.751
0.170,11.859,4.676,4.774,180.846,244.635,202.751
0.172,12.168,4.687,4.738,180.733,244.923,202.749
0.174,12.508,4.706,4.715,180.609,245.239,202.747
0.175,12.869,4.730,4.705,180.476,245.575,202.747
0.177,13.245,4.757,4.711,180.336,245.924,202.751
0.178,13.627,4.786,4.733,180.190,246.277,202.762
0.180,14.009,4.813,4.773,180.041,246.628,202.782
0.182,14.383,4.836,4.832,179.891,246.969,202.814
0.183,14.741,4.855,4.910,179.741,247.291,202.859
0.185,15.078,4.869,5.001,179.593,247.587,202.921
0.186,15.388,4.881,5.097,179.450,247.851,203.000
0.188,15.668,4.894,5.189,179.313,248.073,203.100
0.190,15.919,4.909,5.269,179.183,248.251,203.220
0.191,16.146,4.929,5.330,179.062,248.390,203.353
0.193,16.354,4.956,5.363,178.948,248.494,203.494
0.195,16.544,4.989,5.369,178.844,248.566,203.635
0.196,16.716,5.026,5.357,178.749,248.613,203.771
0.198,16.868,5.064,5.332,178.664,248.637,203.894
0.199,16.998,5.100,5.303,178.590,248.643,204.000
0.201,17.102,5.133,5.276,178.526,248.637,204.082
0.203,17.176,5.159,5.260,178.473,248.622,204.132
0.204,17.224,5.177,5.257,178.432,248.602,204.146
0.206,17.269,5.188,5.264,178.403,248.582,204.116
0.207,17.352,5.193,5.275,178.387,248.568,204.036
0.209,17.488,5.192,5.288,178.384,248.562,203.901
0.211,17.679,5.185,5.298,178.393,248.566,203.710
0.212,17.919,5.175,5.301,178.413,248.581,203.471
0.214,18.199,5.161,5.294,178.442,248.603,203.194
0.215,18.510,5.146,5.281,178.479,248.632,202.886
0.217,18.844,5.134,5.267,178.521,248.665,202.557
0.219,19.191,5.128,5.257,178.567,248.703,202.214
0.220,19.544,5.130,5.255,178.615,248.742,201.867
0.222,19.892,5.145,5.266,178.664,248.782,201.525
0.223,20.227,5.173,5.295,178.711,248.821,201.195
0.225,20.541,5.214,5.338,178.756,248.857,200.887
0.227,20.824,5.262,5.389,178.795,248.890,200.608
0.228,21.068,5.313,5.444,178.828,248.917,200.369
0.230,21.263,5.363,5.497,178.853,248.937,200.176
0.232,21.408,5.407,5.540,178.870,248.951,200.032
0.233,21.508,5.441,5.570,178.879,248.958,199.933
0.235,21.568,5.462,5.585,178.882,248.960,199.873
0.236,21.595,5.474,5.588,178.880,248.958,199.847
0.238,21.602,5.478,5.582,178.874,248.953,199.849
0.240,21.630,5.476,5.571,178.867,248.946,199.874
0.241,21.674,5.469,5.559,178.858,248.939,199.917
0.243,21.732,5.459,5.548,178.849,248.931,199.973
0.244,21.796,5.449,5.541,178.841,248.925,200.037
0.246,21.862,5.436,5.539,178.836,248.922,200.102
0.248,21.924,5.421,5.539,178.835,248.921,200.165
0.249,21.979,5.402,5.543,178.839,248.926,200.219
0.251,22.022,5.379,5.549,178.849,248.936,200.260
0.252,22.054,5.351,5.556,178.865,248.950,200.284
0.254,22.083,5.318,5.565,178.886,248.968,200.291
0.256,22.116,5.285,5.575,178.911,248.987,200.281
0.257,22.159,5.256,5.587,178.938,249.005,200.252
0.259,22.215,5.238,5.601,178.966,249.019,200.205
0.260,22.288,5.236,5.617,178.994,249.028,200.139
0.262,22.377,5.256,5.635,179.020,249.030,200.054
0.264,22.486,5.302,5.657,179.043,249.022,199.948
0.265,22.615,5.371,5.682,179.061,249.003,199.821
0.267,22.767,5.453,5.714,179.074,248.970,199.673
0.268,22.944,5.539,5.753,179.080,248.921,199.504
0.270,23.147,5.619,5.803,179.078,248.855,199.312
0.272,23.378,5.683,5.864,179.067,248.769,199.097
0.273,23.636,5.723,5.939,179.045,248.665,198.862
0.275,23.914,5.737,6.027,179.016,248.551,198.610
0.277,24.207,5.738,6.124,178.979,248.431,198.345
0.278,24.508,5.738,6.226,178.937,248.313,198.072
0.280,24.811,5.750,6.329,178.890,248.203,197.793
0.281,25.111,5.788,6.428,178.840,248.106,197.514
0.283,25.402,5.865,6.519,178.788,248.030,197.238
0.285,25.680,5.985,6.597,178.736,247.979,196.970
0.286,25.943,6.132,6.656,178.683,247.962,196.713
0.288,26.191,6.283,6.691,178.633,247.983,196.471
0.289,26.428,6.416,6.696,178.586,248.049,196.249
0.291,26.663,6.509,6.663,178.543,248.166,196.050
0.293,26.910,6.540,6.589,178.505,248.341,195.878
0.294,27.183,6.490,6.467,178.474,248.570,195.734
0.296,27.484,6.370,6.309,178.447,248.846,195.615
0.297,27.811,6.201,6.129,178.425,249.158,195.520
0.299,28.160,6.008,5.944,178.408,249.498,195.446
0.301,28.524,5.812,5.770,178.394,249.858,195.390
0.302,28.896,5.637,5.623,178.383,250.228,195.350
0.304,29.268,5.504,5.518,178.374,250.598,195.324
0.305,29.631,5.420,5.457,178.368,250.961,195.310
0.307,29.978,5.374,5.431,178.363,251.308,195.306
0.309,30.298,5.355,5.427,178.358,251.628,195.308
0.310,30.585,5.352,5.435,178.354,251.915,195.315
0.312,30.827,5.354,5.445,178.350,252.157,195.324
0.314,31.018,5.350,5.444,178.345,252.347,195.334
0.315,31.157,5.334,5.428,178.340,252.486,195.342
0.317,31.250,5.310,5.401,178.334,252.579,195.350
0.318,31.303,5.284,5.368,178.327,252.631,195.356
0.320,31.324,5.261,5.336,178.321,252.650,195.360
0.322,31.334,5.245,5.311,178.316,252.641,195.363
0.323,31.365,5.242,5.298,178.311,252.611,195.363
0.325,31.411,5.257,5.301,178.308,252.565,195.362
0.326,31.466,5.284,5.318,178.306,252.510,195.357
0.328,31.525,5.319,5.343,178.306,252.452,195.350
0.330,31.581,5.355,5.370,178.309,252.397,195.339
0.331,31.630,5.386,5.394,178.314,252.350,195.326
0.333,31.666,5.408,5.410,178.322,252.319,195.309
0.334,31.692,5.414,5.412,178.333,252.308,195.288
0.336,31.724,5.404,5.400,178.348,252.321,195.263
0.338,31.773,5.381,5.377,178.367,252.355,195.233
0.339,31.842,5.347,5.343,178.393,252.409,195.199
0.341,31.932,5.304,5.302,178.424,252.483,195.160
0.342,32.042,5.256,5.255,178.463,252.576,195.115
0.344,32.172,5.204,5.204,178.509,252.687,195.065
0.346,32.322,5.151,5.152,178.564,252.815,195.008
0.347,32.492,5.096,5.097,178.629,252.959,194.945
0.349,32.681,5.039,5.040,178.704,253.117,194.876
0.350,32.888,4.981,4.981,178.790,253.290,194.799
0.352,33.114,4.920,4.920,178.888,253.475,194.715
0.354,33.358,4.857,4.857,178.999,253.672,194.623
0.355,33.621,4.793,4.792,179.123,253.881,194.523
0.357,33.898,4.731,4.730,179.259,254.098,194.416
0.359,34.186,4.675,4.675,179.404,254.319,194.305
0.360,34.479,4.632,4.632,179.555,254.543,194.190
0.362,34.773,4.603,4.603,179.711,254.764,194.073
0.363,35.064,4.595,4.595,179.867,254.980,193.958
0.365,35.347,4.610,4.610,180.023,255.187,193.844
0.367,35.617,4.644,4.644,180.174,255.382,193.735
0.368,35.869,4.690,4.690,180.318,255.562,193.632
0.370,36.099,4.741,4.740,180.453,255.722,193.536
0.371,36.303,4.789,4.789,180.576,255.860,193.451
0.373,36.475,4.828,4.828,180.684,255.973,193.377
0.375,36.612,4.850,4.851,180.774,256.055,193.317
0.376,36.710,4.855,4.856,180.845,256.106,193.271
0.378,36.775,4.846,4.848,180.898,256.127,193.240
0.379,36.818,4.828,4.831,180.936,256.124,193.221
0.381,36.854,4.807,4.809,180.963,256.101,193.212
0.383,36.896,4.786,4.787,180.983,256.064,193.212
0.384,36.945,4.770,4.769,180.998,256.018,193.218
0.386,36.998,4.762,4.758,181.014,255.969,193.228
0.387,37.051,4.760,4.753,181.032,255.920,193.240
0.389,37.101,4.761,4.752,181.057,255.879,193.253
0.391,37.148,4.764,4.755,181.092,255.849,193.264
0.392,37.198,4.767,4.761,181.140,255.837,193.271
0.394,37.265,4.768,4.767,181.206,255.846,193.272
0.395,37.359,4.764,4.775,181.292,255.883,193.266
0.397,37.490,4.760,4.785,181.403,255.952,193.250
0.399,37.657,4.760,4.800,181.534,256.051,193.225
0.400,37.853,4.767,4.822,181.684,256.174,193.193
0.402,38.074,4.787,4.853,181.846,256.318,193.154
0.404,38.312,4.822,4.897,182.018,256.478,193.111
0.405,38.562,4.878,4.954,182.194,256.648,193.063
0.407,38.816,4.951,5.023,182.372,256.824,193.014
0.408,39.069,5.035,5.098,182.545,257.001,192.964
0.410,39.314,5.124,5.177,182.711,257.175,192.914
0.412,39.545,5.212,5.253,182.865,257.340,192.867
0.413,39.755,5.293,5.322,183.003,257.491,192.822
0.415,39.937,5.360,5.380,183.120,257.625,192.783
0.416,40.085,5.411,5.424,183.213,257.735,192.749
0.418,40.195,5.448,5.455,183.278,257.819,192.723
0.420,40.267,5.472,5.476,183.317,257.877,192.704
0.421,40.309,5.486,5.488,183.334,257.914,192.692
0.423,40.328,5.491,5.492,183.331,257.931,192.684
0.424,40.345,5.490,5.490,183.314,257.933,192.682
0.426,40.375,5.484,5.483,183.286,257.924,192.684
0.428,40.414,5.475,5.473,183.251,257.906,192.689
0.429,40.460,5.465,5.462,183.212,257.884,192.697
0.431,40.506,5.456,5.452,183.174,257.860,192.706
0.432,40.547,5.448,5.446,183.141,257.838,192.717
0.434,40.579,5.445,5.444,183.115,257.822,192.728
0.436,40.598,5.447,5.450,183.101,257.816,192.739
0.437,40.609,5.455,5.462,183.103,257.821,192.748
0.439,40.640,5.471,5.482,183.124,257.843,192.756
0.441,40.694,5.494,5.508,183.164,257.879,192.762
0.442,40.768,5.525,5.541,183.219,257.929,192.765
0.444,40.861,5.564,5.581,183.289,257.990,192.765
0.445,40.970,5.613,5.627,183.371,258.062,192.763
0.447,41.093,5.669,5.678,183.463,258.143,192.757
0.449,41.226,5.729,5.734,183.562,258.230,192.749
0.450,41.367,5.791,5.792,183.668,258.323,192.737
0.452,41.514,5.852,5.851,183.778,258.420,192.721
0.453,41.664,5.907,5.910,183.890,258.519,192.701
0.455,41.816,5.954,5.967,184.001,258.618,192.677
0.457,41.965,5.992,6.021,184.110,258.716,192.649
0.458,42.111,6.022,6.072,184.215,258.811,192.617
0.460,42.250,6.047,6.119,184.314,258.903,192.579
0.461,42.384,6.070,6.162,184.407,258.990,192.538
0.463,42.513,6.092,6.201,184.494,259.073,192.492
0.465,42.637,6.115,6.236,184.575,259.152,192.442
0.466,42.756,6.142,6.265,184.652,259.227,192.389
0.468,42.872,6.172,6.289,184.723,259.299,192.332
0.469,42.984,6.202,6.309,184.790,259.367,192.273
0.471,43.094,6.232,6.324,184.853,259.432,192.212
0.473,43.201,6.258,6.334,184.912,259.494,192.148
0.474,43.305,6.281,6.340,184.967,259.553,192.082
0.476,43.407,6.297,6.341,185.020,259.609,192.015
0.477,43.507,6.307,6.339,185.070,259.663,191.947
0.479,43.605,6.312,6.334,185.117,259.715,191.878
0.481,43.702,6.314,6.328,185.162,259.765,191.809
0.482,43.796,6.314,6.321,185.205,259.812,191.739
0.484,43.888,6.313,6.315,185.246,259.857,191.670
0.486,43.977,6.312,6.310,185.284,259.900,191.603
0.487,44.063,6.311,6.308,185.320,259.941,191.536
0.489,44.146,6.311,6.308,185.354,259.980,191.472
0.490,44.224,6.312,6.309,185.385,260.016,191.410
0.492,44.298,6.314,6.312,185.414,260.050,191.351
0.494,44.367,6.316,6.315,185.440,260.082,191.296
0.495,44.430,6.318,6.318,185.463,260.111,191.244
0.497,44.488,6.321,6.322,185.484,260.138,191.197
0.498,44.540,6.324,6.325,185.502,260.163,191.155
0.500,44.586,6.328,6.328,185.516,260.185,191.119
0.502,44.624,6.331,6.331,185.528,260.205,191.088
0.503,44.656,6.334,6.334,185.537,260.222,191.062
0.505,44.683,6.337,6.337,185.544,260.237,191.042
0.506,44.704,6.339,6.339,185.550,260.250,191.026
0.508,44.720,6.341,6.341,185.553,260.260,191.013
0.510,44.732,6.342,6.342,185.556,260.268,191.004
0.511,44.741,6.343,6.342,185.558,260.274,190.998
0.513,44.746,6.342,6.342,185.559,260.277,190.994
0.514,44.749,6.341,6.341,185.560,260.277,190.991
0.516,44.752,6.339,6.340,185.562,260.275,190.989
0.518,44.757,6.337,6.337,185.565,260.271,190.988
0.519,44.765,6.333,6.334,185.569,260.265,190.987
0.521,44.775,6.329,6.330,185.574,260.256,190.986
0.523,44.789,6.324,6.325,185.581,260.245,190.983
0.524,44.804,6.319,6.319,185.589,260.232,190.980
0.526,44.820,6.313,6.313,185.598,260.219,190.976
0.527,44.836,6.306,6.306,185.607,260.207,190.972
0.529,44.851,6.301,6.299,185.616,260.196,190.967
0.531,44.863,6.296,6.294,185.623,260.188,190.962
0.532,44.872,6.292,6.291,185.629,260.183,190.958
0.534,44.877,6.291,6.290,185.632,260.182,190.953
0.535,44.883,6.293,6.293,185.633,260.187,190.949
0.537,44.895,6.298,6.300,185.630,260.198,190.946
0.539,44.915,6.303,6.311,185.623,260.216,190.944
0.540,44.944,6.306,6.323,185.611,260.243,190.943
0.542,44.983,6.304,6.337,185.594,260.278,190.943
0.543,45.033,6.294,6.351,185.572,260.323,190.945
0.545,45.089,6.273,6.365,185.547,260.373,190.947
0.547,45.149,6.239,6.376,185.520,260.426,190.951
0.548,45.207,6.195,6.385,185.493,260.477,190.954
0.550,45.259,6.147,6.391,185.469,260.523,190.958
0.551,45.300,6.102,6.393,185.449,260.560,190.961
0.553,45.328,6.066,6.392,185.436,260.584,190.963
0.555,45.336,6.046,6.387,185.432,260.591,190.964
0.556,45.351,6.047,6.377,185.439,260.579,190.964
0.558,45.392,6.070,6.362,185.458,260.542,190.962
0.559,45.466,6.105,6.341,185.492,260.477,190.958
0.561,45.575,6.142,6.312,185.543,260.381,190.950
0.563,45.724,6.173,6.274,185.613,260.249,190.940
0.564,45.915,6.187,6.227,185.703,260.082,190.927
0.566,46.141,6.175,6.169,185.811,259.883,190.909
0.568,46.396,6.133,6.100,185.935,259.663,190.885
0.569,46.671,6.068,6.026,186.073,259.427,190.855
0.571,46.959,5.991,5.951,186.222,259.183,190.817
0.572,47.254,5.911,5.882,186.380,258.938,190.770
0.574,47.548,5.838,5.823,186.545,258.701,190.713
0.576,47.836,5.782,5.781,186.715,258.478,190.646
0.577,48.112,5.751,5.758,186.887,258.278,190.566
0.579,48.372,5.743,5.754,187.059,258.107,190.474
0.580,48.614,5.750,5.761,187.229,257.972,190.367
0.582,48.838,5.767,5.775,187.395,257.882,190.246
0.584,49.052,5.786,5.791,187.554,257.844,190.108
0.585,49.269,5.802,5.803,187.705,257.861,189.953
0.587,49.500,5.808,5.806,187.849,257.927,189.784
0.588,49.752,5.804,5.801,187.986,258.034,189.603
0.590,50.023,5.794,5.791,188.118,258.173,189.410
0.592,50.312,5.783,5.780,188.244,258.337,189.209
0.593,50.613,5.774,5.773,188.367,258.517,189.002
0.595,50.922,5.773,5.773,188.486,258.707,188.789
0.596,51.232,5.784,5.784,188.604,258.897,188.574
0.598,51.537,5.808,5.808,188.720,259.079,188.359
0.600,51.832,5.840,5.841,188.835,259.247,188.145
0.601,52.113,5.877,5.878,188.951,259.391,187.934
0.603,52.374,5.913,5.914,189.069,259.504,187.729
0.605,52.617,5.945,5.945,189.188,259.578,187.532
0.606,52.843,5.968,5.968,189.310,259.609,187.343
0.608,53.060,5.979,5.978,189.431,259.602,187.164
0.609,53.272,5.981,5.980,189.551,259.564,186.993
0.611,53.481,5.979,5.978,189.666,259.502,186.830
0.613,53.686,5.978,5.977,189.774,259.423,186.675
0.614,53.885,5.982,5.981,189.873,259.333,186.528
0.616,54.074,5.996,5.996,189.961,259.238,186.389
0.617,54.251,6.023,6.024,190.035,259.146,186.257
0.619,54.412,6.061,6.063,190.092,259.063,186.133
0.621,54.553,6.099,6.102,190.132,258.996,186.015
0.622,54.674,6.131,6.134,190.151,258.951,185.903
0.624,54.780,6.147,6.150,190.147,258.936,185.799
0.625,54.885,6.139,6.141,190.118,258.956,185.700
0.627,55.009,6.100,6.099,190.063,259.015,185.606
0.629,55.159,6.029,6.024,189.984,259.107,185.517
0.630,55.338,5.935,5.926,189.885,259.226,185.428
0.632,55.542,5.827,5.815,189.768,259.367,185.340
0.633,55.766,5.714,5.702,189.635,259.524,185.250
0.635,56.006,5.605,5.597,189.490,259.690,185.155
0.637,56.257,5.508,5.511,189.335,259.860,185.055
0.638,56.513,5.429,5.448,189.173,260.027,184.947
0.640,56.772,5.361,5.402,189.006,260.186,184.829
0.641,57.029,5.296,5.367,188.839,260.331,184.700
0.643,57.281,5.226,5.334,188.672,260.456,184.557
0.645,57.529,5.143,5.295,188.509,260.555,184.399
0.646,57.773,5.040,5.244,188.353,260.622,184.223
0.648,58.018,4.911,5.173,188.205,260.654,184.031
0.650,58.267,4.764,5.087,188.066,260.655,183.824
0.651,58.522,4.610,4.991,187.935,260.628,183.607
0.653,58.782,4.462,4.891,187.814,260.578,183.382
0.654,59.046,4.330,4.794,187.702,260.509,183.153
